,0,1,2,3,4,5,6,7,8,9,10,11,12,13,14,15,16,17,18,19,20,21,22,23,24,25,26,27,28,29,30,31,32,33,34,35,36,37,38,39,40,41,42,43,44,45,46,47,48,49,50,51,52,53,54,55,56,57,58,59,60,61,62,63,64,65,66,67,68,69,70,71,72,73,74,75,76,77,78,79,80,81,82,83,84,85,86,87,88,89,90,91,92,93,94,95,96,97,98,99,100,101,102,103,104,105,106,107,108,109,110,111,112,113,114,115,116,117,118,119,120,121,122,123,124,125,126,127,128,129,130,131,132,133,134,135,136,137,138,139,140,141,142,143,144,145,146,147,148,149,150,151,152,153,154,155,156,157,158,159,160,161,162,163,164,165,166,167,168,169,170,171,172,173,174,175,176,177,178,179,180,181,182,183,184,185,186,187,188,189,190,191,192,193,194,195,196,197,198,199,200,201,202,203,204,205,206,207,208,209,210,211,212,213,214,215,216,217,218,219,220,221,222,223,224,225,226,227,228,229,230,231,232,233,234,235,236,237,238,239,240,241,242,243,244,245,246,247,248,249,250,251,252,253,254,255,256,257,258,259,260,261,262,263,264,265,266,267,268,269,270,271,272,273,274,275,276,277,278,279,280,281,282,283,284,285,286,287,288,289,290,291,292,293,294,295,296,297,298,299,300,301,302,303,304,305,306,307,308,309,310,311,312,313,314,315,316,317,318,319,320,321,322,323,324,325,326,327,328,329,330,331,332,333,334,335,336,337,338,339,340,341,342,343,344,345,346,347,348,349,350,351,352,353,354,355,356,357,358,359,360,361,362,363,364,365,366,367,368,369,370,371,372,373,374,375,376,377,378,379,380
p0,-0.03501721565581438,-0.03484178866054341,-0.03461509116126751,-0.03434212316517812,-0.03447809222875888,-0.03451890292153202,-0.034355645075601994,-0.03420110761831963,-0.03405529075797345,-0.03390944470324783,-0.03401125785980408,-0.034114315799841824,-0.03418620079232338,-0.03422441278292789,-0.034250201716955024,-0.03428106753932543,-0.03432076019458123,-0.034385529626886506,-0.03445162578002774,-0.03450779859741434,-0.034566548022079105,-0.03442328239768722,-0.034476180675398115,-0.034627005364431654,-0.034612310641022284,-0.03457894223442336,-0.03456852066851724,-0.03468161981574183,-0.03476945054871118,-0.0348218591851985,-0.03486802264114798,-0.0349154408236124,-0.034977863639657984,-0.03504404099636568,-0.03509897280083241,-0.03512265896017232,-0.035118849381517984,-0.03509879397202173,-0.035054992638856836,-0.034981195289218815,-0.034874901830326654,-0.034808656273304324,-0.03476517753140303,-0.03473420670096455,-0.03472199372349553,-0.03469978854046501,-0.03468009109330453,-0.03467040132340825,-0.034685719172133075,-0.03474607411724131,-0.03492090188393943,-0.03505945956355675,-0.03517424716602973,-0.035261514701354434,-0.0353025121795867,-0.035295989610842314,-0.035251819507598633,-0.035075218749379584,-0.034895553755659205,-0.03495220152823562,-0.03500010621285369,-0.03502801775039707,-0.035079686081713926,-0.03511433860352742,-0.03509388607717231,-0.035054663608330296,-0.03499167120778714,-0.0349111588863905,-0.034825626655050124,-0.03473632452473797,-0.03465075250648838,-0.03457266061139829,-0.03449454885062741,-0.03443207297069778,-0.03455415057893271,-0.03466626867921593,-0.0347696772306961,-0.034893126192268434,-0.03502411552257484,-0.03514389518000399,-0.03527996512269151,-0.03541357530852012,-0.03552472569511978,-0.035617166239867805,-0.03527825124489389,-0.034889635232326334,-0.03485732253232471,-0.035105986028188894,-0.03524277232944842,-0.03505239989413609,-0.0348232463124581,-0.034682172922031816,-0.03434234545132933,-0.03419197867108441,-0.03434505400701452,-0.03447562356609965,-0.03460243732413786,-0.034719245256897804,-0.034826047340119334,-0.03491034354951417,-0.034889449245782696,-0.034891014410727186,-0.03498569669144646,-0.03495496916211051,-0.03489173563710612,-0.034804746091989344,-0.03471150050229247,-0.03460574884352475,-0.034486241091172966,-0.03435047722070211,-0.03421095720755601,-0.03454255590705048,-0.03505988667644406,-0.03529507490374183,-0.03525949523223243,-0.03518265815581964,-0.035064563650716356,-0.03491266158038463,-0.0344958649268053,-0.034082821641446034,-0.033831462663511704,-0.033675351076998,-0.0336712289566412,-0.03379537684565999,-0.03390328214519085,-0.03395673961794263,-0.03399518742535246,-0.03402362563327646,-0.03402955430761561,-0.03401797351431571,-0.03398513331936729,-0.03391603378880549,-0.03382817498871,-0.03372655698520495,-0.033614929844458866,-0.033489543632684554,-0.03334664841613902,-0.03320499426112338,-0.03309851034305497,-0.03322527088120011,-0.03284997882892701,-0.032887847891864566,-0.033008615202752126,-0.03305311563696066,-0.0328823032630702,-0.03270023274864847,-0.032544715596241,-0.03228370753439941,-0.03203147210928059,-0.031765618779591824,-0.03141602997796377,-0.030830471203754685,-0.030221112961258987,-0.02991352103334785,-0.03015014958497189,-0.030007243876109653,-0.029835688133267,-0.029598492371229065,-0.02928881371411973,-0.028975376558666138,-0.028635680878985947,-0.02824972664915505,-0.02782251384320787,-0.027345292435137673,-0.026819312398896802,-0.02624957370839702,-0.025667326337509767,-0.02509507026006647,-0.024530305449858816,-0.023996651745070305,-0.02354876029211454,-0.02309963267911226,-0.022380658011986448,-0.022083919625369108,-0.02156358451075249,-0.021025763888336314,-0.020245429770759358,-0.019452476801656828,-0.018896170371710378,-0.01831921246250246,-0.01769304129198057,-0.01716290361468944,-0.016539785804050352,-0.015932478572038725,-0.01529638495214001,-0.014677754897700013,-0.014100338362254746,-0.013515385299530369,-0.012876645663443107,-0.012185369408099198,-0.011454056487794802,-0.010678956857015946,-0.00987882047043844,-0.009077397282927807,-0.00825218724953921,-0.0073694403255173775,-0.006344240221151145,-0.005127666236877359,-0.003954853054402889,-0.002832050630244192,-0.0014839134117011097,2.2233766860151744e-05,0.0010912010793353625,0.002127394854741944,0.0031435567295015326,0.004134686674746178,0.005087034661800738,0.006008100662182601,0.0069016346476014,0.008004146934736106,0.009090554870758744,0.010487498557690569,0.011980881031617327,0.01340301728238239,0.014740157240538232,0.01574175186455296,0.01645851135117791,0.017072773535101757,0.01760078847883141,0.018214034539809784,0.01890063068162481,0.019178868189486418,0.019188103072323832,0.019420880292653188,0.019064613118687256,0.018799052963228775,0.018366916107352225,0.017142927904660064,0.01622201671525594,0.015146536167450526,0.01394720582705242,0.012484153176663565,0.011087686667217236,0.009634901340885708,0.0077565406161775015,0.006071177441691287,0.004314928806891732,0.002283561355140744,0.00015217258417393222,-0.0021358063146697643,-0.004466600913005455,-0.006798671777430359,-0.00911326895964475,-0.01142039251129774,-0.013696292483987174,-0.015842444036575774,-0.01781423390557185,-0.01973976924879188,-0.021590299937040883,-0.023640394514781296,-0.02564477350389528,-0.027569142999014633,-0.029196540180960052,-0.030241755196009138,-0.03169681978285193,-0.03314553463500097,-0.03440771379074676,-0.03537725362309007,-0.03625309734604945,-0.037222043349363146,-0.038146258108210304,-0.039022127747252854,-0.03984863747688435,-0.040565113874590046,-0.04124305253067708,-0.0418647343391808,-0.042354826555360235,-0.04268563037253844,-0.04302544998939128,-0.04378846229418268,-0.04419586630987879,-0.04451272589497579,-0.04480337422076598,-0.045069061260439594,-0.04531728698708376,-0.04555555137368289,-0.045787604393119116,-0.046002196018172695,-0.046201826221522344,-0.04642524497574573,-0.04664110971833544,-0.04664768178150252,-0.04659049194620631,-0.046458290183890964,-0.0464873035828692,-0.04655941663572121,-0.04653356105458509,-0.04622350383363083,-0.04586840637435845,-0.04546951864933801,-0.04503434063131685,-0.04454412229321937,-0.0440338636081468,-0.04347356454937709,-0.04301712737840452,-0.042390585777098144,-0.04153899304110144,-0.04056322434494521,-0.03943728604696344,-0.037796828337574806,-0.035260237835030475,-0.03262213728663428,-0.029543475738661087,-0.025822302495363696,-0.021439867430692455,-0.016197355577020095,-0.010402750912828529,-0.002727530155150479,0.006097224837699423,0.0153814555914949,0.02524522166713844,0.03716679468053441,0.049693897495233154,0.06346260086202613,0.07869521480123476,0.09519273906733762,0.11395948044118902,0.1339762040733834,0.15373579761131684,0.17562846384004,0.19816858910584195,0.22106492321411608,0.24378134908097795,0.26571113789317824,0.2870917559451211,0.30744360661670667,0.3264218232087821,0.34466218848092983,0.362433408779709,0.3769474560725851,0.39040989365834017,0.40028373332731315,0.40692274637643333,0.4109837524328969,0.4120126235048179,0.4102239605543304,0.40560526339295083,0.3987577726543607,0.38931175381795324,0.3766936731715895,0.3621091122717291,0.34370114664864393,0.32414485145168037,0.30366090954381253,0.2819356819203699,0.2591664187791707,0.2348631538887169,0.20955218315730736,0.18542007739525668,0.16217525071255498,0.1396179332991241,0.1184035811006614,0.09766698164321838,0.07838603644452541,0.0603580396599947,0.04278205666407632,0.02746582865947572,0.015017447964237332,0.0035584749241292382,-0.006993760101924711,-0.0160822360891937,-0.023744453060798906,-0.03005791103987378,-0.035251080229475734,-0.03910914775312787,-0.041779969249725185,-0.043904988623150086,-0.0447988168577952,-0.04537097136814963,-0.04548436704823249,-0.045266503921267166,-0.044931606479219156,-0.04494434283417641,-0.044767119985235915,-0.044381187982958314,-0.04381904687758885,-0.04312944671905741,-0.04234363755697861,-0.041553535820270354,-0.04062826094159284,-0.03970520654087523
p1,-0.04079538098910905,-0.04085866166738168,-0.04092517350615574,-0.04102088083728461,-0.041101552673902766,-0.04131084137531178,-0.04152952552835286,-0.04145063052263609,-0.0413529545873067,-0.04165615229363056,-0.042023631994679095,-0.0421976839377239,-0.04231603954002325,-0.04243628402018461,-0.04258998293440499,-0.04279838135032506,-0.04302365673967478,-0.04327018412147196,-0.04351483851477088,-0.043713474003306746,-0.04385084156411599,-0.04399505794975341,-0.04414924817884597,-0.04429966227010753,-0.044453175242338716,-0.044612227037031174,-0.04473647374533683,-0.04486943159445725,-0.0449836006067498,-0.04506965034053802,-0.045199198177184936,-0.04517147061493353,-0.04511111668977312,-0.04504138429708276,-0.04497227338293433,-0.04490378389339132,-0.04488651710644943,-0.044877317711962406,-0.04489002011319272,-0.04491774932731229,-0.04496050537138145,-0.045013913262348854,-0.04506359801705136,-0.045109559652213846,-0.04516117318444918,-0.04521718863025806,-0.0452807310060289,-0.045380075377688074,-0.04549409439631223,-0.04550219440567145,-0.04551721686286704,-0.04552416168579844,-0.04552427879211177,-0.04555024362086708,-0.04563014633261406,-0.04570918639848308,-0.045869659889178585,-0.04604515977364104,-0.04621068602589978,-0.04635748861985456,-0.04648306752927554,-0.04659742272780336,-0.046783657142908656,-0.046999913858934886,-0.04721871685045318,-0.04737685153400993,-0.047468953893408675,-0.04754795528751787,-0.047592289195141496,-0.04756988177223822,-0.047564380007587656,-0.04751381667653595,-0.04734338476475419,-0.04727194750641963,-0.047334125879810146,-0.0473330235565152,-0.04730324020153685,-0.04723318332187547,-0.047105983715491684,-0.04704189045180335,-0.047087691962334775,-0.04714691241890875,-0.046977784460607,-0.046974376372507724,-0.047131867952010895,-0.0473428305055488,-0.047524399353965394,-0.04765945087333141,-0.04770782101180569,-0.04773339963690759,-0.04771111175919776,-0.04779037851349923,-0.04780790716416735,-0.047570519087907964,-0.047394963299093734,-0.04738378181022679,-0.0473288834038624,-0.04714383836904634,-0.046882459657602724,-0.046567327882538465,-0.046207818010957614,-0.04577830500981075,-0.04528566384589498,-0.04473989448585396,-0.044152246896177964,-0.04352656027326941,-0.04290971089974073,-0.04224648037267952,-0.041614622384100755,-0.04089930356098653,-0.04009754068980917,-0.0392432449497816,-0.03829732310411429,-0.03726314426019883,-0.03619337002035658,-0.03529059791507705,-0.03428198767795437,-0.03338307366108824,-0.03244375570486922,-0.03146766218058005,-0.030515512215454177,-0.029503605333572207,-0.028506223152951194,-0.027666081401434055,-0.0267345085005492,-0.025814855103509497,-0.02491587128399108,-0.02404505711554035,-0.023165848188440884,-0.02230927557334137,-0.02152833124137692,-0.02093713489092227,-0.02049752831308054,-0.0200288830889309,-0.019380069464167864,-0.018746254968130115,-0.01811806463982634,-0.017630404269703477,-0.017282897057797654,-0.01676484639487484,-0.016145756961779056,-0.015603886455421476,-0.015288641716826265,-0.014947564258868451,-0.014567086927205555,-0.014056892317754702,-0.013464940018605296,-0.012783688280373462,-0.012016652128637041,-0.011164617424630914,-0.01043303573159866,-0.009398227774275885,-0.008235407215564348,-0.006962211866264943,-0.00554090694255829,-0.004335205870879041,-0.0031509024617108533,-0.0016788038916584233,-0.00014308875927640454,0.0012831762423664319,0.0027418399661247395,0.0042754493096529,0.005643403747702176,0.007004204604267124,0.008506546039225552,0.009572014668674935,0.010688308621360585,0.011723334332203773,0.012665216820949225,0.013723431932710677,0.01464161342553659,0.015369150225770466,0.01601375294958203,0.016260425064549906,0.01601019767865292,0.015523088376056222,0.014791597091288302,0.013822598758871625,0.01291397721470252,0.011811430695144051,0.010273995147920104,0.008646126363550815,0.0068320108301775685,0.004913842851716606,0.0028404241490332235,0.0005397725685498041,-0.0019230478735933025,-0.004269198090399755,-0.006652939446126081,-0.009343461206718804,-0.012090230415933104,-0.01491362325811417,-0.017822546902462662,-0.020533959425201878,-0.02335093231387378,-0.02620429719420255,-0.028958925052221213,-0.03163735882849769,-0.0341131359546719,-0.03646855954806478,-0.03869296243460922,-0.040686816948042076,-0.04263882452408746,-0.04469302007055759,-0.04681179913951554,-0.048829322884242674,-0.05053323429017735,-0.05200352925164614,-0.053422058931051244,-0.054975609308521384,-0.05649172797584183,-0.05787909745658203,-0.059087759674847945,-0.06022128431087472,-0.06128629444777492,-0.06228628271062375,-0.0630578044144154,-0.06378253994756145,-0.06440605590462675,-0.0646879916951376,-0.06505702770650942,-0.06549341871273336,-0.06584729123496721,-0.06599846290084505,-0.06614558657942306,-0.06625100328436627,-0.06630890939028417,-0.06628549968258439,-0.06621962241811559,-0.06611190259735893,-0.06596484022066593,-0.06578093528825854,-0.06555518780022923,-0.06524327919285575,-0.06499922759515159,-0.06478257361962675,-0.06452299877157874,-0.06416704145635067,-0.06375868462808912,-0.06312871321733735,-0.06243505894786215,-0.06167794971999625,-0.06081262716318307,-0.05957843986463138,-0.05801701641169517,-0.05596779770079262,-0.053139884959135075,-0.04994098181609967,-0.045781052618794796,-0.040848692011362854,-0.0349882979529164,-0.02773805748932559,-0.02009538914103348,-0.011948547324861208,-0.001607215810002575,0.009835387392919705,0.02198482150977281,0.035294310329538406,0.049993246471685224,0.06582485939761051,0.0826365327318892,0.10023826650321951,0.11806294946258561,0.13629191371297072,0.15473468808109658,0.17317783844449555,0.191317770083225,0.20859336764067277,0.22447275260235183,0.23930406077049526,0.2521866564717194,0.2637254975822454,0.2734316028671028,0.28052858180861584,0.28492251984090855,0.286810234895045,0.286108601926811,0.28267981915729934,0.27552931762013794,0.26589288506659314,0.2533038190885302,0.23932260041785225,0.22314566253299206,0.20456510042301815,0.18330319194789718,0.16062807570532134,0.13820034665290487,0.1157505087974984,0.09239950956281426,0.06884435172341372,0.045460337928884764,0.022568494521413716,0.0005448156369387783,-0.020539847074710404,-0.040512374916572724,-0.05836883576136339,-0.07290405995040683,-0.08617773877629303,-0.0967956182663781,-0.10590593850415289,-0.11326814424131959,-0.11914698745373765,-0.12389006327614352,-0.12735683483375881,-0.12888374327459318,-0.12891358884304932,-0.12840572988672505,-0.12699342330407545,-0.12477730202225554,-0.1217629433817489,-0.11794665664189594,-0.11373222430652674,-0.10935663816322894,-0.10493478518178946,-0.1004853937899055,-0.09614533898215606,-0.0919902457531534,-0.08805698909754289,-0.08421639995237011,-0.08095473548524448,-0.0777857385180118,-0.07474974830496466,-0.07202960774360864,-0.06972320254972751,-0.06713361257476874,-0.0644585625324907,-0.062431556539808475,-0.06102121060753274,-0.0599768443085202,-0.05877929492588229,-0.05809513529724787,-0.05730312796755964,-0.05643003966606758,-0.055683171434053026,-0.05514176196864658,-0.05449870509351214,-0.053994262500629026,-0.05370043843988931,-0.053417359410027884,-0.05311300331481352,-0.05276135221760478,-0.052286940791110764,-0.0517994328726671,-0.0514479526826722,-0.05118151683744383,-0.050720569128237386,-0.05012210186557853,-0.04950987309682098,-0.04897737096316647,-0.0485030605722281,-0.04799425133504344,-0.047417996320697514,-0.04690052883224407,-0.046431959028787564,-0.04603591265330388,-0.045488101226051514,-0.044918994393867415,-0.04436670929818571,-0.04392029460730379,-0.04360151055250352,-0.043230257685990994,-0.04272435723526178,-0.04219783644578848,-0.041658820279714126,-0.041101683699158495,-0.04054142666621839,-0.039993674142967964,-0.03960383810367663,-0.039222732414638056,-0.03872620842661886,-0.03823580095179278,-0.03773226723792314,-0.0372212322176746,-0.036795477535354254,-0.03632241098943722,-0.035929117226555514,-0.03552829056737253,-0.03511555601590307,-0.034489490097417544,-0.03372889131820529,-0.032963283330518615
p2,-0.022584007169682868,-0.022588835299283815,-0.022577420000924487,-0.02238845078452656,-0.022105670506005457,-0.021862308463924618,-0.02171579039184694,-0.02156743841163611,-0.021412877380736543,-0.0212921071565126,-0.02122637759624952,-0.021171313557154486,-0.021133164896357574,-0.02111693147091278,-0.021137613137799018,-0.021195209753921123,-0.021448024981271373,-0.021482571100713308,-0.021423236487743337,-0.021329514519593244,-0.021211404944114727,-0.0210964075090423,-0.02100514696199483,-0.020950123050477158,-0.020916960521881633,-0.020885726192405266,-0.020661345196855575,-0.020444524375765487,-0.02023401347918739,-0.020193110265202346,-0.02022848233565911,-0.020284616583677778,-0.02033901280064372,-0.02038167077727851,-0.020522664402576454,-0.020918413567908307,-0.021327346397034853,-0.021761962590453567,-0.022219136848311276,-0.02269636887040668,-0.022807591053501115,-0.022907386321194198,-0.022989699372552255,-0.023043279908724047,-0.023076877630717304,-0.023104242239401336,-0.023114123435509636,-0.023259404152368324,-0.023617388223406546,-0.023867900649603736,-0.023605773470875516,-0.023351205667830468,-0.023092947367039034,-0.022836623694945025,-0.02258848477786468,-0.022350405741985727,-0.022283056674174868,-0.022471058316907655,-0.022638510755087767,-0.022777289182434466,-0.022896143792267037,-0.022978199777502768,-0.023020957330654936,-0.023016291643830816,-0.022977327908729677,-0.023122334644683135,-0.02337539967771067,-0.023591018445073986,-0.023762941057216547,-0.02393230539507048,-0.024109405777652183,-0.02426661674018324,-0.024395188271177006,-0.02448262035847868,-0.02454391298926486,-0.024593441150043138,-0.02460807982665173,-0.0244439734521619,-0.023998035670513583,-0.023600312492463228,-0.023217054034605736,-0.02284888541312069,-0.02250705674377143,-0.02221031814190408,-0.021963044722446628,-0.021738986599907962,-0.021521268888376948,-0.021342391701521496,-0.021227980152587596,-0.021172409354398406,-0.02116630441935332,-0.021189040459427037,-0.021242492586168595,-0.021319785910700502,-0.02141779554371776,-0.021547771595486966,-0.02166533917584537,-0.021762998394199987,-0.021831999359526625,-0.02184546718036902,-0.021830276964837872,-0.021795178820609967,-0.021550850367486787,-0.021227927376648394,-0.020885051128645755,-0.02054909647066331,-0.020237563249475322,-0.01992857631144665,-0.019661776516166983,-0.019277615668284048,-0.018890641653839517,-0.0184605883039346,-0.01800058046289842,-0.01768985906535587,-0.017232692948975295,-0.016807589626758004,-0.016088486085905712,-0.015319437394153855,-0.014515443483273409,-0.013753651547886088,-0.012974072633241265,-0.012245867459311555,-0.011543554933082782,-0.010789454876214074,-0.009971067452372296,-0.009081517824699997,-0.008113931155813603,-0.007073932607801628,-0.00611458828415396,-0.005110417346716649,-0.0036282173019410962,-0.0023379438927244737,-0.0008293786219342981,0.0007585484143496386,0.0024764778003626333,0.004161197043458379,0.005830940497097837,0.007598872073727676,0.009391106332347753,0.011218326714723894,0.0130880331140611,0.015005225423612505,0.016860021225225747,0.01851533811308719,0.020250011784373884,0.02203091717866877,0.02384742923562281,0.025717672894955416,0.02772515723110414,0.030040522410677818,0.032394589487708195,0.034783608623860415,0.03719632998097913,0.039640253721086705,0.042120380006381505,0.044618583999236176,0.047122990862195915,0.049606245160140436,0.051566115321458425,0.05335719765241828,0.05474508744386578,0.056294114514094995,0.057508159334065535,0.05860918047059423,0.06041302166921926,0.06133280177554149,0.0620606184361108,0.06263863214418285,0.06327523947824959,0.06376439934523319,0.06411798688891779,0.06435100225269602,0.06446407057956857,0.06445281701214364,0.06432099169263641,0.06409046976286867,0.0637681263642681,0.06303040868696497,0.062223326901459305,0.06143721389697123,0.06076285717099783,0.06020587440156372,0.059690613579361576,0.0591915914623294,0.058721308068699046,0.05811807524086079,0.05732080503342349,0.05656667810649294,0.055856944548464155,0.05518035444759979,0.0545225328920296,0.053888727074553944,0.05353165170713115,0.053219558285375855,0.05295994683570043,0.05272406738471273,0.052476294959216296,0.052165379586210696,0.051783821292891816,0.051286790740895954,0.05049942087397898,0.04925933761653559,0.047668466119504864,0.045568167747742055,0.04325612299573241,0.04074170694174292,0.0380392946632359,0.0356673836012181,0.033188545469961625,0.030562325005714024,0.027790597369069695,0.024867112719964463,0.021799996217674086,0.018606442204069512,0.015144425913565263,0.011724996956720506,0.008368155432292924,0.005081401438793397,0.0018678600744856985,-0.0012518435626137983,-0.004243099372204717,-0.006846768338217665,-0.009323511794527308,-0.011730893303261528,-0.014497055986008141,-0.01686693880354151,-0.01852577617533245,-0.019799485244665127,-0.020935614887229316,-0.022427744005465225,-0.02393549300494688,-0.025198908504032932,-0.026235611544034712,-0.02713867718172188,-0.027938730243676775,-0.028498149565662666,-0.028816227736001114,-0.029179407742556465,-0.02958331463244636,-0.02974149998734786,-0.029842907075910894,-0.02999487528167895,-0.03043594210071855,-0.030857607885680403,-0.03126799755296915,-0.03157203040430032,-0.03174579682438752,-0.03222962276788821,-0.03272340250413813,-0.03318409251799716,-0.0336285677414174,-0.03408057810645347,-0.034468475390358196,-0.03477711262768839,-0.03514946134673079,-0.03550617168043063,-0.0358372437541564,-0.03614080269338634,-0.03641372362370752,-0.036651631670815046,-0.03705953814910118,-0.03750502114627541,-0.03794433235719305,-0.038343997357201495,-0.03858546452111207,-0.038833913436334716,-0.03909121891050882,-0.039373033770544,-0.04005623915050052,-0.04073886490418335,-0.04141091109695118,-0.042062377793995104,-0.0426826400603384,-0.04319241012597294,-0.04326043600148281,-0.04321900963203573,-0.043144993870729544,-0.043050888724844,-0.04300331509516242,-0.043195852341696,-0.04338145834786412,-0.04355450803990923,-0.043736876344535436,-0.043646476864792734,-0.04346669861017345,-0.043270575154409824,-0.043068106305625936,-0.0428642918724461,-0.04251023420802688,-0.04210672278148133,-0.04202729138979357,-0.04199219006580548,-0.04194708473931073,-0.041906975523951784,-0.04188123753313719,-0.04187799588004018,-0.041691569682012646,-0.04138699236532758,-0.04123025780646432,-0.041485781957413065,-0.0418594197177839,-0.042367421003188785,-0.04300166072952079,-0.04376651381295529,-0.04467135516995098,-0.045096317356216845,-0.04560736031775549,-0.04622910723219515,-0.04696655793642216,-0.0477958381010032,-0.04908138328087981,-0.050352025792806065,-0.051544015419556305,-0.05257485194339741,-0.0533739101460903,-0.053644582237440536,-0.0534640018229684,-0.052880979904910905,-0.0518833494568869,-0.0503418777616964,-0.048054175484881195,-0.04493461745862343,-0.04086007851520674,-0.035399742445154925,-0.029945818949525665,-0.023040522948536243,-0.015038819405567002,-0.005525989346029927,0.00535813510280773,0.01690594284507432,0.028991864752785465,0.042054586860547194,0.05603319359355583,0.0706473206586124,0.08574634316146806,0.10115526120845278,0.11665532490647426,0.13282928336716937,0.1482706343844346,0.16262381418076288,0.17678859828226387,0.1897166295227367,0.20088214480606498,0.2098920189559956,0.2165381267965616,0.22013022492447176,0.2207426491901594,0.21880638758160859,0.21470893914060601,0.20850780856205514,0.19963360097598257,0.18812631632861465,0.174074079565956,0.15820679406605714,0.14095193018836824,0.12189769109810462,0.10132095165311804,0.07949171171110334,0.056659971129599654,0.03312073436722722,0.01030429175168927,-0.012441005372925466,-0.034660491236394086,-0.05682719069360641,-0.07744334006436347,-0.09624140359081569,-0.11327948238579771,-0.12823369892570446,-0.14058343041874516,-0.15168431110715794,-0.16041104266589104,-0.1670490344312907,-0.17103333087693529,-0.17276422499818833,-0.17312658372087686,-0.17163211018275845,-0.16887225073940432,-0.16455245360870185,-0.15870560793481925,-0.15150063347923629,-0.14347379360144089
p3,-0.06249263650441243,-0.06242626065784365,-0.062429184539249505,-0.06254073458452,-0.06288519660480613,-0.06322857212839286,-0.06338878515991275,-0.063483266241341,-0.06356895435616017,-0.06348782119247964,-0.06338805133574563,-0.06336778956868958,-0.06340336511667909,-0.06348352158129546,-0.06366105240060849,-0.0638073574315283,-0.06396493675445386,-0.06399362978048921,-0.06399492274327542,-0.06396747595961463,-0.06391941438413856,-0.0638469879713433,-0.06375207167558962,-0.06363466545110337,-0.06354638971182511,-0.06344324663021281,-0.06329762512778539,-0.06299226131791824,-0.06259245170192254,-0.06219617941163258,-0.061797021791029465,-0.06124620724628399,-0.060611017443958234,-0.059883952281894776,-0.0591483744997239,-0.05835512502410278,-0.05748059654304315,-0.0565366053595706,-0.055556119367258114,-0.05450064153316118,-0.05337892191541867,-0.05219971057210604,-0.05097425756123508,-0.0497100629407535,-0.04837583728403319,-0.04685431965069103,-0.04536932854268494,-0.043895102148477964,-0.042388971053286206,-0.04085906020041807,-0.03931349453337928,-0.0377797739958733,-0.03629090762833863,-0.03492627379400025,-0.03361160913925895,-0.032346913632975594,-0.03113218724414057,-0.029934304941874032,-0.028730141695426026,-0.027490322474176685,-0.02621234724763644,-0.02489121598544617,-0.02351442865737739,-0.022086360233332433,-0.020592635683344636,-0.019024504977578505,-0.017403843086329918,-0.015750024980026266,-0.014051175629226682,-0.012291045004622175,-0.010637603575651855,-0.009081598647230004,-0.0074824774078029,-0.005684868111438078,-0.0036017551676923425,-0.0013624078818511801,0.0009212763344461212,0.0032410492326802745,0.005653354963165306,0.008110693601483449,0.010737085960215283,0.01325264968674376,0.01569613866771085,0.018077780094630933,0.0202461409576999,0.022313880065016327,0.02432413201912645,0.02625502178206835,0.028103424315863282,0.029879339582515894,0.03154714275626107,0.03299208609990059,0.034348743633420706,0.035642233905840606,0.03670848057767375,0.03746447144266947,0.038037825691087476,0.03848801101044577,0.03853530823504253,0.03825450953110246,0.037851846764419814,0.03707417548851664,0.03628151918381424,0.03552724917395176,0.034480702939667596,0.03293534712174817,0.031278941988545375,0.029454731128864445,0.026906499135025668,0.024093900647011002,0.021027560776678576,0.01772247963599776,0.014396317365462053,0.011133425773483304,0.0077093939175497195,0.00413361565572403,0.0002636810384969699,-0.003799428067415821,-0.00798942740711169,-0.012262589457275784,-0.016550369070136198,-0.020719917415372185,-0.024759225094565362,-0.028784814159346854,-0.033031936946923156,-0.037451693488336685,-0.04174394520359595,-0.04566103436523155,-0.04956211788567266,-0.05335595653882326,-0.05695472583939769,-0.06028834005728883,-0.06319344361458586,-0.06598381256969899,-0.06885104742549109,-0.0717098481192476,-0.07444416359033137,-0.07695533799950435,-0.07924712129205289,-0.08107208560873863,-0.08237751245444408,-0.08354982058978652,-0.08464804984088994,-0.08576205494682085,-0.08676100653222812,-0.08767137497144259,-0.08852575091179823,-0.08930324139847409,-0.09001072127348975,-0.09066506537895952,-0.09128564855709327,-0.09192022779180058,-0.09258305178061968,-0.09319588276689507,-0.09375559572641018,-0.0941399641066317,-0.09440973177281259,-0.09472185310301973,-0.09499332395083998,-0.0952535193547659,-0.09551868935348809,-0.09576633398589497,-0.09598832829107273,-0.09622000799168694,-0.0964818929286369,-0.09679333045358182,-0.09711410854954536,-0.09743610214085349,-0.09775243615205069,-0.09803873550790068,-0.0982837501333868,-0.09849747995371279,-0.09873523627912531,-0.09889652069095103,-0.09898399155027912,-0.09902949128111495,-0.09909280464658606,-0.09916115412508487,-0.09921766466612944,-0.09925421121905792,-0.09927891873302894,-0.0992949121570221,-0.09930648292765892,-0.09937842582885509,-0.09941287950584475,-0.09940109396700303,-0.09935997560281029,-0.0992757311494799,-0.09920032376866192,-0.09913256345370819,-0.0992006157899955,-0.09951907663602066,-0.09976458883280395,-0.10015620673180697,-0.10089599090482884,-0.10175630538286623,-0.102817997372637,-0.10412094713213058,-0.10550129550850626,-0.10699190458847976,-0.10880829512859484,-0.11094801624507346,-0.11313986816637997,-0.11525251985312987,-0.11707915565519925,-0.11866510024751455,-0.1198804497990259,-0.12064145436928617,-0.12078123901776097,-0.12023437275460042,-0.11859309983300784,-0.11550100755913764,-0.1107895631831387,-0.10487300794291526,-0.0957630658694111,-0.0854565197716443,-0.07184743856015499,-0.05511971120713863,-0.03605621684144297,-0.014945984192731184,0.008846027082609974,0.036856027301412436,0.06764733460157454,0.10103871402917909,0.13685492993586015,0.175200773496328,0.21655824548982117,0.2599700514828071,0.30510369149834293,0.3512977743316543,0.3990943637312177,0.44636483973875607,0.4933703422518976,0.53942877773081,0.5838115473734773,0.6257942762039109,0.6646373286638202,0.6986513119278177,0.7290017147083949,0.7559874266026159,0.7767807107705433,0.7908298188006816,0.7986480287710108,0.8030856028337463,0.8012097286053319,0.7917179357053774,0.7771158874151533,0.755964778999431,0.7268362904185719,0.692517916051947,0.6537284512934134,0.6113149705104488,0.5653924107393691,0.5167679957088251,0.4667484374686707,0.41566399417352984,0.3652873255084593,0.31473903670398834,0.2646959274193288,0.21615407266742764,0.16886745585361201,0.12388758433614237,0.08261617962213148,0.04369835711554311,0.008215812568056029,-0.022160265085582456,-0.049506103168846724,-0.07352245617773859,-0.09349888572986961,-0.1105192485386017,-0.12429212270742823,-0.13460555204096186,-0.1420581492166269,-0.1478178448433317,-0.15124178659940246,-0.1520445407766552,-0.15185433530332523,-0.1508222291330229,-0.1481141603944388,-0.1445565960796723,-0.14067154813516008,-0.13667526653652814,-0.13284427875107077,-0.12902443630049906,-0.12556005122883357,-0.12211292523574904,-0.11846032956933902,-0.11537877712238684,-0.11253282897641453,-0.11040768858290337,-0.10842992239835036,-0.10646628121590965,-0.10502548301164182,-0.10339995629647838,-0.10199925194565371,-0.10089436832473947,-0.09997572885668868,-0.09904984568216568,-0.09816759128562168,-0.09750612734776248,-0.09694053080412311,-0.09632765674286714,-0.09583364641357675,-0.09540636624590917,-0.09498030909821814,-0.09453984989232,-0.09408436355014133,-0.0936517929618558,-0.09315516692641154,-0.09264229838101809,-0.09212193728615516,-0.09159845860223673,-0.09107186228961137,-0.09053682520722059,-0.08995184828509603,-0.08936876275589742,-0.08878006858595464,-0.08815760432881273,-0.08756984299505527,-0.08699839372926196,-0.08648027664574753,-0.0861024511059821,-0.08564182543048023,-0.08496240379659831,-0.0842550736348566,-0.0835489500897188,-0.08291866935269512,-0.08235875790622751,-0.08173726696248582,-0.08110176020146645,-0.08046559946527418,-0.07982878467881616,-0.07917867821929239,-0.07852357771250124,-0.07785776841458578,-0.0771662504152797,-0.07645979018740609,-0.07581272989624392,-0.07512453546642478,-0.07441132277531752,-0.07373150730600234,-0.07311631408608431,-0.07248255441733856,-0.07176064427396278,-0.07104494013231549,-0.07037448218462297,-0.06949351553880541,-0.06888177125952022,-0.068212285559115,-0.0674870202677963,-0.06682236523744335,-0.0662806077018144,-0.06561926304059128,-0.06486150205522337,-0.0640799131498187,-0.06325442159258478,-0.06245768489634555,-0.06170183786885651,-0.06104899804343053,-0.06026945875196712,-0.05942671957336609,-0.05851884004068353,-0.0577222211524657,-0.056909939250455545,-0.05609824453073182,-0.055369137431700285,-0.054714178412102826,-0.05394808227639877,-0.05311559880088318,-0.052237999082426934,-0.0513222302702825,-0.050318810259895624,-0.04923189559630879,-0.04812864035831882,-0.04706531128329261,-0.04606923915248456,-0.045031282543098045,-0.04396948315689153,-0.04289282554384603,-0.041789314811952444,-0.04076413597098005
p4,-0.049918086376987594,-0.0501134774937019,-0.05033292645000846,-0.050606894651883276,-0.050649349096124244,-0.05048997992292467,-0.0504791644865435,-0.0507755145699309,-0.05066693324861707,-0.050594378062285235,-0.05056621258067941,-0.050818656841190725,-0.05112562930608394,-0.05121206118719875,-0.051153890915903034,-0.05110322631020573,-0.05132071654131945,-0.05153949253071306,-0.05168014681325872,-0.05164909160727345,-0.051737357470712134,-0.051888808278943474,-0.05208458695677054,-0.05229031860102455,-0.05250662830880003,-0.05271422572584425,-0.05287557770499529,-0.05295833354964408,-0.0529409231925072,-0.052903501081251164,-0.05286731719309434,-0.05289737150516158,-0.0529942889944844,-0.05297357670866566,-0.05312922833362535,-0.053233969720233566,-0.05311350939752992,-0.05300237751665114,-0.052992277666532986,-0.05300101961102939,-0.053055998687939504,-0.05317096489033951,-0.05338466821133137,-0.05340326287145988,-0.053437795382711664,-0.05353731231476998,-0.05359679664841051,-0.053543144506624424,-0.05348588292425905,-0.05334186242340127,-0.05327033994369847,-0.05330434314321875,-0.053435333978740646,-0.053587604178295785,-0.053665923705002914,-0.053527379497155275,-0.0534712535242124,-0.053526532396342946,-0.05341221207048593,-0.053310637126631574,-0.05313159000757173,-0.05316869282345098,-0.053141204669430835,-0.05313689623709805,-0.0533218457314032,-0.05353873698721058,-0.05375861732389739,-0.05379735137310632,-0.05374474517651741,-0.053745321420982387,-0.05377730855602457,-0.05395321948153248,-0.05417163797056128,-0.05434907208177765,-0.054112636741447756,-0.05386869158536249,-0.05400150827999123,-0.05416048344284427,-0.054359441388999626,-0.05460935040642008,-0.05485770367771327,-0.055126060172641336,-0.05536754492260905,-0.05542012642573471,-0.055420310499921785,-0.055383333809659034,-0.05539380917284613,-0.05528133700005732,-0.055259035598500796,-0.05510100078371608,-0.05497623822481629,-0.055063897247134244,-0.0550104250567911,-0.0548078079353092,-0.054677653179482234,-0.0544357281912478,-0.054243140569078224,-0.05422227358364652,-0.05433898151152358,-0.05449136091745081,-0.05444612548300645,-0.054321807895733105,-0.05421499607720817,-0.05411631498555545,-0.053968264578995506,-0.053806404778153086,-0.05364108427631567,-0.05372202280746238,-0.0537510820146755,-0.05379389195966042,-0.053641996761819896,-0.05342447911516102,-0.05326922677729588,-0.05329774589722283,-0.05323846827845538,-0.05287821614640411,-0.05233548359012505,-0.051807727673087084,-0.05128557342198752,-0.05072527086357384,-0.05033842500766762,-0.049701732510606084,-0.048915901918881496,-0.04813570171772683,-0.04732431520369419,-0.046557473016630255,-0.04584050376926871,-0.04507231393278187,-0.044305870891888706,-0.043733090109442145,-0.04289631688464138,-0.042307459015314075,-0.041676044205330456,-0.040543038479132563,-0.039428047200206026,-0.038607548416879876,-0.03776407984789102,-0.03736147310353108,-0.03698967785069747,-0.0365578768344675,-0.03596617255809398,-0.0353261689312833,-0.03461928499861404,-0.033896558271177005,-0.03311383775015868,-0.032168661829060946,-0.031208549305509512,-0.03048343660716753,-0.02967831116426257,-0.028631111820790995,-0.027403289557512846,-0.02607828874821606,-0.024628281242512207,-0.023062016969959714,-0.02163408960905151,-0.020216821021970092,-0.01876013908527424,-0.01711576730543872,-0.01562701680102415,-0.014060862535587415,-0.012631793941773266,-0.011119554041985013,-0.009710085882066687,-0.008354324381381704,-0.007117894662246751,-0.006008542224544892,-0.004869880480167739,-0.003665952093088999,-0.002725839281646939,-0.0018332491124680274,-0.0009831528375891714,-0.0002591423757408866,0.00023795684964253035,0.0007365184767698874,0.0013267154052224587,0.0019070804316209447,0.002328038429340783,0.00244705925609001,0.0023892047205904435,0.002136332894531543,0.0016285975407997217,0.0008992037764486555,-4.1625208032718204e-05,-0.0008509054462919311,-0.0018768419655239529,-0.003133286730989558,-0.004415226866331201,-0.005851544679843026,-0.007389115299226742,-0.009067313852248824,-0.010990897027451096,-0.01322522252152835,-0.015893736285138488,-0.018114121884712266,-0.02023958044062526,-0.02258472943108186,-0.024950489744802344,-0.027293010344074786,-0.02982673906376314,-0.03247509848285755,-0.03469706499122302,-0.03675131837975357,-0.03877556233538526,-0.040812296883246835,-0.04278902204858979,-0.04462019273294805,-0.04636302617051515,-0.04782346150736669,-0.04919153684683972,-0.05061648460393262,-0.0518901239632705,-0.05270984929781806,-0.053556313762988604,-0.05450441648377757,-0.05540236503260687,-0.056184881514152046,-0.056616303888583616,-0.056950257595617504,-0.05727733864373956,-0.05782373247030588,-0.05840783947328334,-0.05895758325015298,-0.05942589072900664,-0.05982973302117627,-0.06025920941401838,-0.06077636812077042,-0.061377893455547436,-0.06201880103509387,-0.06233064463449643,-0.06253132077926965,-0.06239843910973655,-0.06232982915196908,-0.062485119205245104,-0.06269408032592157,-0.06294136649542798,-0.0631811721542189,-0.0634234972518118,-0.06369021673764921,-0.06396133056109943,-0.06420490897837851,-0.06436411052877024,-0.06447955791082705,-0.06457687610957771,-0.06485293966390898,-0.06518130707302204,-0.06513714282217728,-0.06532994627815558,-0.06550277337684389,-0.06568165056051047,-0.06583037360099883,-0.06606827177548785,-0.06635306869073179,-0.06673206513269847,-0.06726551566490444,-0.06784271969426713,-0.06840825543801536,-0.06891787741464948,-0.06996062075710165,-0.07098015481346737,-0.0720820152308145,-0.07330062371510751,-0.07481885711579869,-0.0766817134986297,-0.07875519038300932,-0.08102591316536459,-0.08362342023308572,-0.086449657652469,-0.08884111538672404,-0.09140833553722034,-0.09429403159430293,-0.09715786105929235,-0.09974247263186695,-0.10225811617777611,-0.10452941759742758,-0.10639137300926887,-0.10768835741177359,-0.10806741830634753,-0.10746821844299645,-0.1059466783923545,-0.10327513580509136,-0.09932558681426397,-0.09411227855608714,-0.08684369619900432,-0.07843056171967179,-0.0683632916328478,-0.05635604409261404,-0.0424125580389953,-0.026605593118903807,-0.00782809542547755,0.012537024126135323,0.03584012186566675,0.06053736707640005,0.0888642282493291,0.11811846689906749,0.14883117052561468,0.18015790659408262,0.212863399745519,0.24509302138616604,0.27616170408757124,0.3069891293985046,0.3376389320922768,0.36663668013311745,0.3953577761754064,0.42263256065303145,0.4491329044810968,0.47200662682410655,0.4918621252111951,0.5085613885617046,0.5219275419096989,0.5317899602889744,0.5379680187330617,0.5404392172752238,0.5388087660411214,0.5330001199517058,0.5237902445764049,0.5111299395380544,0.49396969321460005,0.4740338360448634,0.4523404665981409,0.4299388234481777,0.4042265099974286,0.3769394123508023,0.34856044964502797,0.3195583717324063,0.2916030213401051,0.2639716833352971,0.23671721357457612,0.20908827758272513,0.18139191845818523,0.15378936977668212,0.1279361819945561,0.10526975491162383,0.08435346977446119,0.06579846056308439,0.04938840710168849,0.034732062509560874,0.021784426831684474,0.010435500113173781,0.0005784073992741827,-0.00856975938737237,-0.01657627828833283,-0.022165221719752284,-0.026447685126177928,-0.02979893866434778,-0.0323258572908537,-0.03405344096219097,-0.03545725211906697,-0.03647711523477527,-0.03709133746896941,-0.03738491873180541,-0.03689100449102762,-0.03619590675117421,-0.035383509166661255,-0.03421079991734564,-0.033056003125409114,-0.031895439669486034,-0.0315253871193271,-0.03156673520151258,-0.031346545022465776,-0.03150850379783467,-0.031650971647913764,-0.031523943552191944,-0.03135820049430726,-0.031691412814977775,-0.032052434904755255,-0.032385188240704674,-0.033001679533319235,-0.03361571438381105,-0.03415023635001069,-0.03458097398460017,-0.03505031404607174,-0.03542439524730051,-0.03571425275396371,-0.03598471785330647,-0.036204540507227295,-0.036354345677766416,-0.03644885284861956,-0.03668107230336117,-0.03689642630012284,-0.03712178975287975,-0.03729841257560015
p5,-0.03519238492990148,-0.03329902944232682,-0.03134425044324475,-0.02949267713584691,-0.027527504904170465,-0.02542633019109642,-0.023509363150082018,-0.021535524920572823,-0.019376445735295948,-0.01722193077949958,-0.015324470083155534,-0.013375293182220508,-0.011368960677524347,-0.009560088222030085,-0.007552554032331768,-0.005764865132026118,-0.004205793671970549,-0.0026325333942599765,-0.0011384392677502178,0.00030678995940633196,0.001809122271780338,0.003106758209213884,0.004285644383441685,0.005434125999335857,0.006419811330546818,0.007447539230801054,0.008313102267450086,0.009088118860179779,0.009931892641274672,0.010734401767866813,0.011486896299816548,0.012226876297148399,0.012888281060328908,0.013737774143153159,0.01455922968413563,0.015316219219626068,0.015972947025308618,0.0166221914450326,0.017499301281203545,0.018147447690608953,0.018905553006445378,0.019515640911524478,0.020225581852370354,0.02097211557003754,0.021641741986405796,0.02233433744436705,0.023049782223785665,0.023794446152872593,0.024587872693999934,0.025426311900792867,0.02602871139617519,0.027074515838056534,0.02803170604892478,0.02897019645130519,0.029961199784977455,0.031017216102563243,0.031912936687533804,0.03247287479361282,0.03302906241899834,0.03360149950642814,0.03416518599873646,0.03466137183885437,0.035388604384412777,0.03589427984348973,0.03624161256704028,0.03611949575550754,0.03582778617403609,0.03527486487776605,0.034414481849186364,0.033235387070664424,0.0318820357895987,0.03029264940775076,0.02840299858278651,0.025786469667455167,0.0235220446331076,0.020629123395057722,0.017613285300245862,0.013572718529218875,0.009674498616901632,0.005575034186915743,0.0009571458102574175,-0.003500032239180831,-0.00812090415724361,-0.012600514810478526,-0.01720855505019979,-0.021497653091904455,-0.02555338957537592,-0.02938679900516467,-0.03304517054269152,-0.03650350420796996,-0.039768050021130034,-0.042820058002418095,-0.0457305693274958,-0.0484543088714302,-0.05118179479445809,-0.053537923284885304,-0.05581947794393482,-0.057935638369420506,-0.0594687709410095,-0.060840545043722334,-0.0618233273127175,-0.06303594448131228,-0.06379565524726978,-0.06443734427257217,-0.06524743208957998,-0.06609708802402929,-0.06695424147242325,-0.06781264239546268,-0.0686560407538364,-0.06950318650822142,-0.07036032961928342,-0.07120497004767713,-0.07179980432909208,-0.07222777401159851,-0.0725047984470571,-0.07280806069443778,-0.07329925645499558,-0.07401339962538847,-0.0747087748886569,-0.07539038225263663,-0.07594854928431675,-0.07635944626483782,-0.07714847599064022,-0.0778078828784222,-0.07832315086953244,-0.07882590101199011,-0.07942451896139678,-0.08002776728251726,-0.08061349230432614,-0.0811879440039087,-0.0817673723585141,-0.08233927734555543,-0.08290115894260977,-0.08345426712741828,-0.0839873518778863,-0.08450791317208334,-0.08503220098824323,-0.08542340745463438,-0.08582350701799933,-0.08622408921233699,-0.08657092341039081,-0.08686400954843757,-0.0871270975627714,-0.08735268738970461,-0.0875985255282884,-0.08775803877172422,-0.08782655930973424,-0.08791760742430543,-0.08800993309377919,-0.08813853629640814,-0.08804220985207828,-0.08809871362263548,-0.08823449512594148,-0.08866820972113916,-0.08896748998292857,-0.08936964164057215,-0.08989173935565573,-0.09047130082029936,-0.09117103794388598,-0.09210607729385703,-0.09298851721832381,-0.09397447782548426,-0.09516279661617524,-0.09648115981674173,-0.09787956742322894,-0.09933676943112589,-0.10078776583536467,-0.10215005663031967,-0.10332989180980678,-0.10421602136708262,-0.10443126251679416,-0.10388261393051312,-0.10253272310241211,-0.10037223625770268,-0.09715752334027722,-0.09247404642583187,-0.08688006815395173,-0.0799221167485722,-0.07193595730789738,-0.06150605382067098,-0.04794145527582161,-0.03307809300790283,-0.01546732217124626,0.005471379691086459,0.027677427389455236,0.051703940585339475,0.07779575695723305,0.10722402364704518,0.13856434726402478,0.1718442978647231,0.20416414241602965,0.23671148611744325,0.2707781467717407,0.30536364044649245,0.3381983813383938,0.3667282152448921,0.39635886980685425,0.42367077595298147,0.4468386214311742,0.467789828094397,0.4848397762581661,0.4976722159213105,0.505970897082797,0.5094170697417301,0.5073992315371814,0.4976107878892742,0.48240982664352855,0.46206134784335395,0.43720660153235985,0.4111040170962842,0.3823482526594037,0.350656202662858,0.3165266171343888,0.28014584763459777,0.24068818350487892,0.20044677819999845,0.15999913167096091,0.12087790477956407,0.08296079939600465,0.04647947644870539,0.011649038262563874,-0.021373181344121993,-0.051806857115051674,-0.07918279936722891,-0.10308253944170168,-0.12425538971231338,-0.1405961636196467,-0.15644377065690146,-0.16707194138676962,-0.17531719408545196,-0.18161479849112885,-0.18532437406878113,-0.1867797441986059,-0.1862457382225501,-0.18395545722702347,-0.18009021255651567,-0.17449072133879356,-0.16885196475809758,-0.16189658431952067,-0.15423521253344122,-0.14626792766019003,-0.13825188504057323,-0.1301560661861769,-0.12215931287741588,-0.11438503518645697,-0.10722215569598101,-0.10048253318716682,-0.09382642216867734,-0.08754984528728478,-0.0817666738292199,-0.07686870598370012,-0.07240070483679292,-0.0683651703436561,-0.0647396024596055,-0.06150025114011497,-0.05852037915290539,-0.05580216092637549,-0.05339770784119541,-0.051268269844522096,-0.0493788468833438,-0.048463721660128835,-0.04723635200446223,-0.04601548161754772,-0.0450555240794079,-0.04424246424732325,-0.0432073963762429,-0.04222484264553543,-0.041281053094458495,-0.04036852776213643,-0.03947226668755983,-0.038584769909585086,-0.03771228746693399,-0.036851069398193284,-0.03573913804907923,-0.034561009584009615,-0.03338286002571818,-0.03244114751869692,-0.03158819939594134,-0.030677775192843277,-0.029788625029429232,-0.028916999025591757,-0.027996647301088532,-0.02701131997554139,-0.02606471314383963,-0.02536177472127069,-0.024650577705993843,-0.023914194356918904,-0.023159100485445824,-0.022380296014078937,-0.021589030864703894,-0.020739145269021365,-0.01976195745335285,-0.018788534754319425,-0.018086913363541523,-0.017529542170369103,-0.016683511277871047,-0.015831269143224108,-0.014976565683357387,-0.01409124572489311,-0.013272274452579055,-0.01240643651242325,-0.011515636908558977,-0.01068091258806087,-0.009724152364387225,-0.008878463102947489,-0.008042167128522522,-0.007551985786677848,-0.006639101119542139,-0.005760512067112968,-0.00531963820859119,-0.004837858930550396,-0.003989577496079463,-0.0032917937414067232,-0.002635801577836608,-0.0016583692746343598,-0.0009955957794506756,-0.00033504257289808907,0.000355079674606196,0.0012964576546529588,0.002269249598773561,0.0032405768952519735,0.00404128406969253,0.004943392753900187,0.005953712352667045,0.006547909771540217,0.0074349070705146654,0.008225779921944197,0.009015138761991785,0.010006729461957178,0.010995813858868076,0.011956940590351815,0.012975480961691994,0.013960852495682501,0.015008338995260901,0.01606114231142919,0.017079048068282133,0.017957101466481374,0.018820157805915116,0.019686967040145133,0.02063363047046959,0.021495763857839453,0.022494683240312365,0.02349982898262041,0.02451745109343837,0.025546299581662532,0.026561374456410665,0.027565175727022002,0.028565203403057196,0.02948486280260587,0.03041841697411446,0.03137575358519116,0.03242279258207757,0.03358421028730259,0.03464827384787651,0.035613460093833184,0.03662489079113332,0.037599831803575276,0.038546329993350684,0.03947331486926031,0.040419297338373766,0.04161737151031195,0.04265110370156016,0.04366098398664232,0.04474435881830205,0.04581274483232233,0.046866141984228844,0.04791205022943599,0.04901769573397611,0.05011583087855405,0.05120600679073229,0.05231949543527484,0.05341302159699723,0.0544890853009566,0.055551217932463065,0.056523825434976,0.05747875191431127,0.058508504704417486,0.05945121146595529,0.060348440229619826,0.06182265447647845,0.06329003530543592
p6,-0.08763007531161773,-0.08759574664423475,-0.0875563419723406,-0.08753498645371485,-0.08755543024638524,-0.08760704850862704,-0.08769546639896231,-0.08781943407615914,-0.08797020169923102,-0.08817807333001362,-0.08851251840700289,-0.08887632552533833,-0.08926386956937375,-0.08960442948073762,-0.08988248529818116,-0.08997007655804416,-0.09000421183739733,-0.09003025287463118,-0.09004132471719908,-0.09004055241189596,-0.09016176319183378,-0.09032070469638362,-0.09048915374959154,-0.09066836066978379,-0.09093851850526632,-0.09121001809278662,-0.09146460761770955,-0.09171416215584477,-0.09186824303763944,-0.09185726335664081,-0.09184180705097456,-0.09181937421873504,-0.09177371495896068,-0.09171170437163365,-0.09164396755767946,-0.09158300461896676,-0.09118171533813586,-0.09009385102500053,-0.09015679792252923,-0.09031694667181496,-0.09055802323201545,-0.09083818225301127,-0.09110261766155961,-0.09128400035218273,-0.09133564450250559,-0.09153789413728941,-0.09174702200322266,-0.09181470116794477,-0.09182478984491162,-0.09217716184441972,-0.09255333419032517,-0.0928720829421178,-0.0930768809664628,-0.09326200153289371,-0.09344029364198517,-0.09361113252532208,-0.09377326841442396,-0.09393420154074356,-0.09411268213566502,-0.09429996043050255,-0.09448416165649873,-0.0948102583094498,-0.09512043729703284,-0.0954132479412283,-0.0955580662438823,-0.09567912058136231,-0.09578892711815812,-0.09589248580456283,-0.09597354659105359,-0.09602460942829216,-0.09606573594921713,-0.0962398546579227,-0.09640339906654387,-0.0965519944052505,-0.09667605096341883,-0.09672500163441083,-0.09680332678702983,-0.09571774217872595,-0.09550647656109085,-0.09550248645058043,-0.09549924855698111,-0.0954986376691356,-0.0954906535743311,-0.09547467105830121,-0.0954494399052278,-0.0954155848977429,-0.09536185581693062,-0.09529950244232904,-0.0952360245519322,-0.0951582969221921,-0.09506569432802073,-0.09480330502260377,-0.0945016263639666,-0.09421828899842347,-0.0940351193595576,-0.0939900155365038,-0.09386581671147323,-0.0935503329348846,-0.09319022164986934,-0.0925449707498614,-0.09177509156928011,-0.0909508027399796,-0.09007147873893331,-0.08913774404347902,-0.08814397313132291,-0.08706954048054355,-0.08590090683661206,-0.08468215704350214,-0.0833790505211538,-0.0819759619464431,-0.08050476599631451,-0.078967337347783,-0.07737305067793643,-0.0757250306639378,-0.07403015198302751,-0.07231466431252556,-0.07104064680571759,-0.0700748958036964,-0.068694585726604,-0.06723820718342893,-0.06620412533523402,-0.06448424723144872,-0.062680072181161,-0.06080409979121069,-0.05873759380422323,-0.05644724963508832,-0.054129402790197026,-0.05179030277398136,-0.0494318240907559,-0.04705709124472203,-0.04466297873997206,-0.04225823608049359,-0.039837862770173614,-0.03741185831280285,-0.03499834721207995,-0.03259739522832017,-0.030370983059651083,-0.02813703345293713,-0.025915546340574504,-0.023723396655023724,-0.021589334328810574,-0.01953710929452708,-0.017580471484832466,-0.015740045832454135,-0.014055207270188622,-0.012549080730902567,-0.011229166147533692,-0.010092963453091762,-0.009367295174810077,-0.008811584377875811,-0.008338276016146317,-0.007952994980972792,-0.007694491163828811,-0.007561514456311659,-0.007524689750143669,-0.007593391937173562,-0.007622041940716771,-0.007667206243694522,-0.007814265533989694,-0.008073844641395619,-0.00844969339517263,-0.008928061624049816,-0.009542851847767233,-0.010249060723810632,-0.011021649094206309,-0.011851242066531811,-0.012764193452530647,-0.013936650132285925,-0.015175309467673665,-0.01649392159324835,-0.01793998664391515,-0.01952350475492917,-0.0212426010618947,-0.023131650700764464,-0.025211903807838817,-0.02749086051976503,-0.02996039597353649,-0.032444501535910344,-0.03496928655456448,-0.03762463892677849,-0.040331117868893124,-0.043183948001103596,-0.0462628121344867,-0.04942778959221735,-0.05267013019470085,-0.05596858376355544,-0.05929940012161394,-0.0626415098801842,-0.06563141093476116,-0.06881002479927842,-0.07221771749672093,-0.07501993573780555,-0.0774984239685221,-0.07961594918938342,-0.0819768642900727,-0.0845356008559433,-0.0868901005784011,-0.08899558519399392,-0.09085542724616812,-0.09244258053914074,-0.09380357871194611,-0.09501389249106054,-0.09612132859395564,-0.09718410521202689,-0.09798850448455557,-0.09872273133893544,-0.09932555425508736,-0.09986603587618462,-0.10048338216219319,-0.10102323081716137,-0.10150683163289956,-0.10177458544440346,-0.101866615056595,-0.10195805163272781,-0.10227665662040239,-0.10274796254070323,-0.10323976958065703,-0.10375957728674128,-0.10431235171692785,-0.10456643195483165,-0.10484290739367746,-0.10484414140080307,-0.1046894223918221,-0.10469221634717715,-0.10481433000918115,-0.1053123199624812,-0.10598418044026423,-0.10661778540087882,-0.10721313457611811,-0.10776960269852441,-0.10811500166780251,-0.10839344298339633,-0.10864365335432108,-0.10885688268662033,-0.10903688088657704,-0.10918302286071496,-0.10929905851580018,-0.10940061275884264,-0.10955941974028,-0.10976910136997217,-0.10997120377772066,-0.11042697320843033,-0.11087698918621787,-0.11105485843149113,-0.11113309586947437,-0.11122242435414995,-0.11132409366079565,-0.11144247856556899,-0.11157445384550926,-0.11172001927854,-0.11187167464347095,-0.11227057081799467,-0.11275494675688157,-0.11323212562934795,-0.11364377031642205,-0.1141090472846199,-0.11464545647896004,-0.115267997845272,-0.11597979633019705,-0.11678272688118885,-0.1176705394465141,-0.11862573397525311,-0.11965143541730047,-0.12074576872336568,-0.12182499916090442,-0.12280238127439494,-0.12378590145162449,-0.12473055994951787,-0.12556448202578438,-0.1261876679389164,-0.1264932429481877,-0.12637995731365192,-0.125753436296141,-0.12443112858167166,-0.12200803907133327,-0.11860571432096076,-0.11406326264940941,-0.10819130911278743,-0.10209394424062256,-0.0946800183448403,-0.08585881258134995,-0.0752472656810905,-0.06134872112639195,-0.046968800411758216,-0.02864701918948599,-0.009629732063809857,0.008058113308185982,0.029730617104019842,0.0576618193679729,0.08695985558478567,0.11796083077279909,0.1513735839737576,0.18620125066772686,0.2212356434559229,0.25561491222690613,0.2869960389017709,0.3227099853868842,0.3585501889508973,0.39410602453239807,0.4289174920702027,0.46262646650335587,0.4955520765499445,0.5276729560524214,0.5568521301085001,0.5836506630250475,0.6077910547501194,0.6283923538595484,0.6444533982426011,0.6572708894587465,0.6673778231758043,0.6726293863077878,0.6737602388250621,0.6710586057710671,0.6646705640941677,0.6549413771571309,0.6410323987515587,0.6215304555274983,0.5983845826411793,0.5711523808776628,0.5424696737886348,0.5120100884609375,0.4794043961720056,0.4450163467994045,0.40880353092730026,0.3712213687190652,0.33294510051364024,0.2945900666477198,0.25659626720456474,0.21960563166703098,0.1840957503007809,0.14999736453714246,0.11783151743521364,0.08788508444443578,0.06042994101402584,0.03566608759297113,0.013714774630024126,-0.005457913240240192,-0.02217440250149115,-0.032003198502343747,-0.04380580005332969,-0.05307608993328605,-0.06051206202599743,-0.06603298705497762,-0.06985511514162215,-0.07221969640752113,-0.07319978372909608,-0.07286867790804198,-0.07168188807561751,-0.06987753930980635,-0.06766563168862269,-0.06523304029011137,-0.06261849313175517,-0.059698446640842756,-0.057788917790411426,-0.05711457890617446,-0.05613540741878052,-0.055240689831987,-0.05442811463368647,-0.05392415137149292,-0.05376112471867979,-0.054179272365981274,-0.05474708793560365,-0.055232189290190734,-0.055888460310607305,-0.05663269317420477,-0.05738321573734856,-0.058089402937167814,-0.058728129710571036,-0.059277411968635736,-0.059834037491471107,-0.06033527432791472,-0.060750892538709564,-0.06109901716738163,-0.0613827732576347,-0.061590910853350174,-0.06173092999858666,-0.06182158073757968,-0.06186536311474141,-0.0618697771746603,-0.06182217023438846,-0.06159053101209782
p7,-0.017710924868457132,-0.017813608009726457,-0.017987085452962244,-0.018135552675953636,-0.018256509702490736,-0.01831564884106509,-0.01838078159725038,-0.0185263015511148,-0.018682451298125104,-0.01876719915601881,-0.018813658409530868,-0.018892607178681894,-0.018889909877535603,-0.01889493521734461,-0.01906880205809769,-0.019514809378183857,-0.01958915190899402,-0.019681228732404736,-0.019867550184083982,-0.019972157854293536,-0.0200879550131421,-0.020232492387448578,-0.020390145001872972,-0.02056501854269461,-0.020696065030715576,-0.020905768627781887,-0.021123563863968898,-0.02132884828650198,-0.021553496871044513,-0.021805634593206297,-0.022049636428543618,-0.022279252352559318,-0.02242632783317081,-0.022529766113533217,-0.02262259192155522,-0.022651680311798643,-0.02260400863705653,-0.022578278047465886,-0.02256693917753841,-0.022536867037315052,-0.02250493663667259,-0.022492983840170587,-0.022448310615841245,-0.022339887064541007,-0.02241674963082478,-0.02252729230475526,-0.022627833884672675,-0.02273649933104504,-0.022847038604312586,-0.022947576664888048,-0.022998584719733803,-0.02292384810284893,-0.022651047434786693,-0.022427810422799073,-0.02234472783813047,-0.022271639404433503,-0.02219917014894969,-0.02229368979127568,-0.022586604137864952,-0.022895129845155827,-0.02320051691999483,-0.023496515369277157,-0.023717009724352665,-0.02386796310898958,-0.024035158501572035,-0.024223595958363795,-0.024413900535668408,-0.024551415801668836,-0.024594208821811837,-0.02465262598230687,-0.024723542293478576,-0.024821332765639893,-0.024937247409091763,-0.025055036234122852,-0.025175324251009306,-0.02555326620686045,-0.02594753201138805,-0.026278976763897358,-0.026523246311061534,-0.026640106853091226,-0.02667599925297299,-0.026666562435679823,-0.02650967728764029,-0.026357785257989194,-0.02627905778698323,-0.02647280550598078,-0.026565117385000732,-0.0264360399452956,-0.0263057262109682,-0.026190426167554452,-0.026081389800516098,-0.026074883417885983,-0.02619676840224533,-0.026326147417659387,-0.02646114547446403,-0.026583637583012746,-0.02658443418388085,-0.026546278943572817,-0.02661870586463839,-0.02664015012043797,-0.026585105894622117,-0.02652379914902673,-0.026527114100550312,-0.0264555416023223,-0.026286899914560055,-0.026177526925018603,-0.026328704712068485,-0.026226520878193053,-0.026096754745533843,-0.025958249021315962,-0.025821003717370675,-0.025682718735114303,-0.025760610130501488,-0.025809401953677133,-0.025797648483836352,-0.025738158895753885,-0.025694298264300707,-0.02567044161373193,-0.025654088968288986,-0.025475850681546,-0.025279187963193527,-0.025056097385014964,-0.025095372924950666,-0.025124807507111834,-0.02515296975837268,-0.02505163222793817,-0.024840197037366313,-0.024596027909813946,-0.024336488613738265,-0.024186454964942143,-0.023999261180824183,-0.02376369667559482,-0.0233694634788021,-0.023026807872181268,-0.022620414186186925,-0.022250323292174197,-0.021885906997656135,-0.02129300533430946,-0.02052999005115066,-0.019667000619496465,-0.018692162041299094,-0.017774081226216123,-0.01696483681010712,-0.01608125484468493,-0.015098725770555921,-0.014115570642826921,-0.012882757836935311,-0.011561686773042517,-0.010288106673546987,-0.009031063824357251,-0.007878549960234833,-0.006709156086733787,-0.00552502923364661,-0.004441956930612002,-0.0033563894959828342,-0.002269576953472138,-0.00120089432677838,-0.00016159163958546287,0.0008545810844372701,0.0017459156137652407,0.002486142402791919,0.003328376731113272,0.004286407321440234,0.005260703497783136,0.006066973789723279,0.007001599485082988,0.008023113116683616,0.008927228280052456,0.009834850649580444,0.010971967638626907,0.011925121911081311,0.01289558950328193,0.013910435046905183,0.014941533520166306,0.015981384901336843,0.01703429178365659,0.018084830196572737,0.019027072216344174,0.019880215313924594,0.020719605256221296,0.021545242039112837,0.022417181878643597,0.023359096282734346,0.024229747692191016,0.025016011053292403,0.025771156797179243,0.026821153906357125,0.027797693811193486,0.02860984679825676,0.029003089079941573,0.02915524094734072,0.02913551401805209,0.028933283286003444,0.028675254303115988,0.028345376089847406,0.027584998780320603,0.026656515174399934,0.025573675254295936,0.024549002098717534,0.023658405253648904,0.02246778230017786,0.02090700671617117,0.019347757851236803,0.01751848714930192,0.015458890170930939,0.013453150358984783,0.011379096363918264,0.009061309183456679,0.006559753648039571,0.003990616370169909,0.0015607106110879386,-0.0009591030726346532,-0.00342903745461329,-0.00582959366794182,-0.008161396712422163,-0.010402571587932983,-0.012545470706468987,-0.014596274155405896,-0.0164576853739133,-0.01825787985236495,-0.020047584370804197,-0.02167978312152603,-0.02311123945167296,-0.024227739736425023,-0.025119675427229454,-0.025783421241196307,-0.026589453469227073,-0.027334516682494408,-0.0278542939262809,-0.028307790314159607,-0.028697556883526064,-0.029082425770758983,-0.02945060798457043,-0.029713178779067505,-0.02993638806284256,-0.03015773574430841,-0.030357221731699448,-0.030548595933072662,-0.03082987917611067,-0.031111863738569678,-0.03136155473696589,-0.03149428871489779,-0.031617016963730385,-0.03172536448693304,-0.03180933128802811,-0.03186579237059079,-0.03193841505612434,-0.03214239574015894,-0.03234700023433787,-0.03253597848923629,-0.032729330455460864,-0.03291393108365023,-0.032961600126580205,-0.03313565743286284,-0.03328088827719185,-0.03338328525892349,-0.033486539208515714,-0.033529172372635044,-0.033613697496393334,-0.03371576917190151,-0.03369541400621014,-0.03366048457646606,-0.03361677872865011,-0.03355088441529142,-0.03343082130265443,-0.033311982163300655,-0.03317936709717291,-0.03299235120436941,-0.03272655958514316,-0.0323413673399013,-0.031777399569204584,-0.031141725260839602,-0.030006707776877944,-0.02886154963896545,-0.02725738066602164,-0.025363155506206055,-0.02309268582924242,-0.02030709390063599,-0.016974075839205415,-0.013186286594416338,-0.008623320788938717,-0.0040034244085745555,0.0010340048371882034,0.006595593030865891,0.012641531021483875,0.0191687051204295,0.026189501414149836,0.033657909151087795,0.041524447644796625,0.04971911685785388,0.05816941675291633,0.06682847229272018,0.07536415971281923,0.08413431007668778,0.09278645573317465,0.10115546700908656,0.1088526905992906,0.11563287399499514,0.12176100401650966,0.12752096590832335,0.1322965762674721,0.13568476731336787,0.13737362043134962,0.13780676851893398,0.13674764592109762,0.13433202103095793,0.1302470294079911,0.12443704594924984,0.11655393195380286,0.10735969815149354,0.0964677685277822,0.08366531669497773,0.06899843176347173,0.051942443331934866,0.034260606218532025,0.015203785029012542,-0.005333817236483406,-0.026794652768876707,-0.04882384309967478,-0.07114209621838022,-0.09382669735666685,-0.11641903129725611,-0.13834199115220913,-0.1595898568587532,-0.1796940391402996,-0.19888301989895094,-0.21679514007188166,-0.23329914836917393,-0.24825891090275842,-0.2610182309226604,-0.2728165737306692,-0.28249592610868957,-0.2901728380493249,-0.29610664523735575,-0.30121939443657775,-0.3047059551375234,-0.30669437927975784,-0.3071852031605152,-0.3066977730239635,-0.30527799501743347,-0.3025616085125662,-0.2979532923683672,-0.2927522884339185,-0.28709054299861636,-0.28085293730837496,-0.2740397980016751,-0.26694905593467444,-0.2592083016688676,-0.2509306602910037,-0.24185244156391675,-0.23197129182701226,-0.22176576808672566,-0.21133712042002095,-0.2010184163952765,-0.19071861272564705,-0.18035881545834748,-0.16997339964920982,-0.15952664316366563,-0.14904104612354205,-0.13869668591077966,-0.1285173124558139,-0.11851042568921553,-0.10871915054169139,-0.09931716937515117,-0.09043214070479508,-0.08175450974323867,-0.07353171561653551,-0.06598598039540049,-0.05908988046570106,-0.05272346580011393,-0.0466786909350488,-0.04118697108402021,-0.03652061420392692,-0.03225145307120289,-0.02826048582534362,-0.024580381923741512,-0.021518124849539723,-0.018426469702627894,-0.015666803154762963,-0.013343319703194169,-0.011299605014805095
p8,-0.06471456499667533,-0.0647044964861617,-0.06478578581987862,-0.06488270649408043,-0.06498150849953088,-0.0650896918268295,-0.06509943224937259,-0.06503732353155967,-0.06497895683305714,-0.06504106517848893,-0.0652470407626586,-0.06527359093712273,-0.06529075858057469,-0.06531826240376762,-0.06526430305754431,-0.06516642443743867,-0.06504480828426681,-0.06489632955390269,-0.06478638172252536,-0.0647921656909802,-0.06481622812302332,-0.06502592919832026,-0.06527542173092732,-0.06548245243337548,-0.065590575539693,-0.06558178855334376,-0.06558487349027652,-0.06559983039851791,-0.06564603432600172,-0.06569985593654665,-0.06559569634448113,-0.06549154397114454,-0.06539052384931586,-0.06529076101170656,-0.06523273088189577,-0.06517827634134607,-0.06513069883347819,-0.06519558739757496,-0.06528338405320833,-0.06533234090042642,-0.06533435946569141,-0.06533949510271087,-0.06532500319003315,-0.06522418605084142,-0.06514066566611716,-0.06517775172748852,-0.06523733790531214,-0.06531817421359758,-0.06540026066617023,-0.06544501731241809,-0.06548793608818784,-0.06545367995038025,-0.06542862417127315,-0.06536668531697154,-0.06527286337989154,-0.06516778335226406,-0.06507082022613511,-0.06498322399336608,-0.06488999464563408,-0.06483332961561389,-0.06491842555563737,-0.06497597214741634,-0.06489573675473623,-0.06481113145309705,-0.06484592983032164,-0.06492902478488038,-0.06498281212436771,-0.06498679682143342,-0.06508253590620924,-0.06521696277943378,-0.06533302914140268,-0.06541590206424383,-0.06545514076181676,-0.06540740424694273,-0.0654362075143338,-0.06542365108386008,-0.06540109357173772,-0.06528628706720524,-0.06509659939186502,-0.06492104828944742,-0.06483887875980385,-0.06474796838479102,-0.06473435783892477,-0.06465608066093725,-0.06464045491136572,-0.06470878538822583,-0.06477037901303194,-0.064833360410045,-0.06477635920112848,-0.06467263284509434,-0.06457342447533815,-0.06457698426990088,-0.06458985330217447,-0.06459599501597918,-0.06462163273939484,-0.0647294201115935,-0.06483012306454347,-0.06487849175417308,-0.0648983182480394,-0.06490607425036576,-0.06492758135060292,-0.06496471451453094,-0.06500872370784568,-0.06505710889615932,-0.06511362004500096,-0.06517444521065544,-0.06516407290383931,-0.06511607529365834,-0.0650836826427478,-0.06500298539794963,-0.0649614715945176,-0.06495845470568207,-0.06489708634831697,-0.0648216043828707,-0.06487689299809485,-0.06492595155645997,-0.06494079961809314,-0.06496014658824685,-0.06498086696536337,-0.06500608524441231,-0.0650301759168837,-0.06503751347078088,-0.06511835387150469,-0.06516776816311691,-0.06516458562858335,-0.06511344050134638,-0.0650045683116087,-0.06488631511956124,-0.0647730559138568,-0.06468041568306124,-0.06463482049031247,-0.06473806183212286,-0.06492268365772776,-0.06495517856759883,-0.06496366979629362,-0.0648879017134803,-0.06479868683167817,-0.06473538921566346,-0.06463522343142274,-0.06453443947081373,-0.06439171538027738,-0.06432813929443429,-0.06439951687105899,-0.06442158951265695,-0.06440941369697958,-0.06434367824047613,-0.06425920267428148,-0.06415411194395648,-0.0639758106097941,-0.06373510726794349,-0.06348689709679999,-0.06331470106129217,-0.06336070011558301,-0.06341035967286772,-0.0634393923193938,-0.06334660726336117,-0.06312645980006706,-0.0628548046175805,-0.06257734216665502,-0.06228521408558162,-0.061948547028408144,-0.0615740729076841,-0.061261587281593505,-0.0607924030860177,-0.06027571467397187,-0.05973824577907458,-0.05917435876913073,-0.05851484183188486,-0.057763444964169276,-0.05688769881186828,-0.05593118813905808,-0.05490500628936955,-0.05380546165061048,-0.05257273753417682,-0.05137469282685332,-0.05014428636971365,-0.048763445510964884,-0.0473394838633635,-0.045878026438914046,-0.044402198249466396,-0.042833996193099924,-0.04126106754068902,-0.03974085132478975,-0.03828044634596979,-0.03696596412360626,-0.035761947451491624,-0.034625447114166756,-0.0335677130871701,-0.03259062034589628,-0.031685418865596886,-0.030861483621381202,-0.030022724730873376,-0.02935232307147631,-0.028908338382354515,-0.028364690461196114,-0.0278479433104104,-0.02734934687432857,-0.026840151097087685,-0.026323480922631558,-0.025737182984689112,-0.025066748253999675,-0.024385426151792428,-0.0236859240655505,-0.023013663242861263,-0.02239487242129211,-0.021735957149037515,-0.021021616460869683,-0.02013580690154914,-0.01908324319270112,-0.01797942847516308,-0.016848737768070755,-0.015718671090493273,-0.01460422846143358,-0.013508534899828787,-0.012436590424550554,-0.01139652005440546,-0.010422468497379295,-0.009464967889256664,-0.008525310353572891,-0.00761752240307028,-0.006721603995848767,-0.0058388050900219845,-0.004957250643718246,-0.0040656906150815155,-0.00318662496227239,-0.0023400536434690757,-0.0015509766168683675,-0.0008268938406866312,-0.00015655527316078485,0.00045691412745071946,0.0011360200823603392,0.0017834568969496384,0.0023221459160109948,0.0027324455499346057,0.003109002562784053,0.0034399419849706807,0.00370588884683445,0.0038905931786428582,0.003974055010589856,0.003923774372794765,0.003825751153175898,0.003569533161463914,0.002997461903005853,0.002204776983647275,0.0012364543557276289,4.387000669621761e-05,-0.0012783698246221866,-0.002767755668108585,-0.004469007758295819,-0.0062291953769411145,-0.008114718603001092,-0.010137121734338816,-0.01230216683176117,-0.014666380675770137,-0.017318684057415844,-0.020020938019557517,-0.02270306879679187,-0.02537597271218899,-0.028077632415556657,-0.030773672892826412,-0.03345033485981562,-0.036062601388748436,-0.03850697746855268,-0.0408894984539155,-0.04318891432915352,-0.045382100078469434,-0.047574261601027255,-0.049690117278448465,-0.05165910965506506,-0.053413947049127365,-0.05509923591435822,-0.05673084999086506,-0.05818582010960241,-0.05951206140702742,-0.060792233825805495,-0.061939906974053244,-0.06295820580071765,-0.06382345996785607,-0.06458151811528412,-0.06527270821460746,-0.0658969527598621,-0.06631031059171345,-0.06677845778702876,-0.06732249067396717,-0.06786091872446376,-0.06838999186936878,-0.06890821929530869,-0.069410073165282,-0.06995045617747092,-0.0705046090064319,-0.07097684734474588,-0.07141837792068303,-0.07182497024361388,-0.07223097856135485,-0.07263099357063155,-0.07308712642815376,-0.07354326646170216,-0.0739900386301091,-0.07440897078025921,-0.07472560134969755,-0.07505160920518546,-0.07538199431453643,-0.07571613164556656,-0.07604402116609567,-0.07635191284394838,-0.07665293164695543,-0.07695332754295474,-0.07724935049979263,-0.07754975048532496,-0.07786327746741828,-0.07820430641395101,-0.07862645069176735,-0.07915042775432463,-0.07974439925430621,-0.08037778084815259,-0.08102915136357898,-0.08184897888390008,-0.08275254725347052,-0.083806047362196,-0.08485802503982953,-0.08597657186751084,-0.08710824530740924,-0.08822242032763586,-0.08922068196680488,-0.09013976947768712,-0.09086088870489785,-0.09141810367193434,-0.09187546883714023,-0.09192909184088885,-0.09140889931779386,-0.09051849844568155,-0.08896578165514922,-0.08633332009658634,-0.08260014522691585,-0.07805373499108229,-0.07196774449549562,-0.06523086266403101,-0.05679886701711312,-0.04616329932922335,-0.03424045944097621,-0.019787604138563918,-0.003668539865857554,0.013654159214936451,0.03223338567323446,0.0521851190839811,0.07316047744774062,0.0963620155979037,0.11984341216776348,0.1443627015515568,0.17013077802147386,0.1964293855860626,0.22319817669039743,0.24967317050049181,0.27608214997379626,0.3021702627166364,0.32712209860348,0.35068457445618484,0.3725721336642595,0.3925590750912909,0.41035664874860167,0.42515229452357917,0.43702128251893524,0.4462771408207514,0.45281174441183597,0.45687496873025213,0.4588276303726454,0.4580571667952108,0.4545304530275194,0.4481512390990662,0.4387838915572059,0.4266479736944264,0.41229517855866615,0.3955798583955419,0.37721503630347697,0.35762209155947905,0.3369335242053428,0.31526745928280137,0.29280639683352516,0.2698253368991208,0.2466086545211296,0.22352980927139493
p9,-0.0642056789238391,-0.06424492153307343,-0.06432650608086657,-0.06440073145367582,-0.06444148900084662,-0.06458005349562061,-0.06464229222963963,-0.06468203826350116,-0.064624759854327,-0.06448645894644564,-0.06433566202009545,-0.0641867440903865,-0.06405970517222355,-0.06394767028030601,-0.06384001442912761,-0.06373298763297634,-0.06362971490593426,-0.06352707126187734,-0.0634350567144753,-0.06341497750399704,-0.0634502671245991,-0.06370537497435877,-0.06384075868798597,-0.06396149018923467,-0.06409918088674918,-0.06425008081531103,-0.06441981500897886,-0.06449696024660331,-0.0645275911242974,-0.06455351452797747,-0.06466386839115018,-0.06488692393075862,-0.06510319785713437,-0.06530269019536175,-0.06531071993351775,-0.065217738288247,-0.06497438183964452,-0.06477745865393772,-0.06475908906792185,-0.06473696223748884,-0.06470982816313643,-0.06469081184516179,-0.06470741328366159,-0.06459557701292579,-0.0644899289182903,-0.06441354111138087,-0.06435073218225243,-0.06429104187872578,-0.06421822013348788,-0.06417693991217302,-0.0641272450638749,-0.06403609832912628,-0.06389436738394991,-0.06383850271243738,-0.06388940220270989,-0.06393401287941144,-0.06400961283612808,-0.06407986176083941,-0.06408996096296446,-0.06410066877234294,-0.06417387263670812,-0.06424891081235858,-0.06428127575536272,-0.06437928159325791,-0.0644450030292596,-0.06449888355905026,-0.06456092318153514,-0.06469146306715066,-0.06478069195065286,-0.06486919839445676,-0.06496522780240621,-0.0649811638623566,-0.06496488555248926,-0.0649336000718537,-0.06490076576106532,-0.06485695649815848,-0.06484379818938225,-0.06484191582372915,-0.06481893917231873,-0.06478879175521175,-0.06464687309444064,-0.06449303680609403,-0.06433040787644151,-0.06435422852339116,-0.06440412247615904,-0.06451854429702145,-0.06463018104208887,-0.0647134941144529,-0.06471628241286241,-0.06479495166129481,-0.06481712016698676,-0.06483614024119336,-0.06477063172970546,-0.06457881628297443,-0.06458892063724002,-0.06467776044606996,-0.0647722070759638,-0.06486476053120979,-0.06488271876979582,-0.06488714642995147,-0.06489096062663975,-0.06488166134831677,-0.06485612358332557,-0.06480309731989656,-0.06479346492442672,-0.06487569051026015,-0.06492040279507516,-0.06495260175319234,-0.0651289924538796,-0.06530338597742284,-0.06536269365964165,-0.06519813073232159,-0.06499415063358804,-0.0648754988228269,-0.06476486737148243,-0.06464235320293196,-0.06451045628993465,-0.06447979647910207,-0.06445732971807074,-0.06443113578971893,-0.06440246464061655,-0.0643309230993763,-0.0642537516938774,-0.06418849180453215,-0.06413639336716603,-0.0640912063171673,-0.06395414131377147,-0.06385168452203686,-0.06405673319749375,-0.06417968457770276,-0.06420494544462976,-0.06422522322032823,-0.06423614288664392,-0.06423082942519698,-0.0642161578173826,-0.06415946871185235,-0.06411490453314062,-0.0641380258211229,-0.06413888954252908,-0.064078051915991,-0.06400784378412575,-0.063992119809713,-0.0639757817967801,-0.06396757972958522,-0.06394063859230173,-0.06398075155803867,-0.0639912568969046,-0.06401298229902874,-0.06406470279654891,-0.06406512213459012,-0.06406179274106936,-0.06405033957653639,-0.06402513760140405,-0.0639721992781801,-0.06391786206031363,-0.06385078841450476,-0.06373894741630054,-0.06359749532964673,-0.06354161236892639,-0.0634638572995193,-0.06319808401815039,-0.06269431263573011,-0.06226598265908573,-0.06182129612486475,-0.06127024035217178,-0.060625900163468575,-0.05991834714253333,-0.05917953646035111,-0.05837529076794554,-0.05747980974667882,-0.05670832121959413,-0.05588598973037187,-0.054876412192223244,-0.053566124290683914,-0.05218395206083386,-0.05073364558048536,-0.049237079927696235,-0.04771175518077082,-0.04615079641826086,-0.04455920371896642,-0.042976977161936866,-0.041425366826471716,-0.03992370834085396,-0.038615899359421654,-0.037306134808803904,-0.03597892562536642,-0.034665270697915924,-0.03328590618300786,-0.0319277713994362,-0.031027554349534404,-0.030318418638931338,-0.02953910492476804,-0.028808851963461175,-0.028141701206844824,-0.027524527644682537,-0.026968965562964832,-0.02659987301550229,-0.02625763976550574,-0.025959765786896922,-0.02569562605362965,-0.025207605466339086,-0.02454751661789545,-0.023834275662770618,-0.02331235711524423,-0.022802134519088198,-0.022060474633564087,-0.021124926318387825,-0.02056048142332592,-0.019922987570990463,-0.019194241029820622,-0.018261936169594806,-0.017168074891321175,-0.016044187735954313,-0.01489839970285194,-0.013779666017464356,-0.012724342092159679,-0.011670854004138028,-0.010641397796988705,-0.009627524415365643,-0.008632383326203235,-0.007661599609011259,-0.006718663764751752,-0.005875767804286508,-0.005030345960062785,-0.0040738939605723876,-0.0030123700199260715,-0.0020563088341390657,-0.0013471310362561488,-0.0007459675782563566,-9.475352163902683e-05,0.00037626597626453805,0.00078420241925345,0.0011777911469013321,0.0013787852250960173,0.001646051914212843,0.0019799361014316095,0.00217487735795174,0.002574843452183488,0.002997540741670324,0.0032001656482814824,0.0029854355417095677,0.002974294468475046,0.002830053039908104,0.002515836263472416,0.00184909852569534,0.0008686693049111587,-0.00030486572789375805,-0.0016471315809416236,-0.0031475032623963515,-0.004649041202647153,-0.0061947320682316015,-0.0077942468686144125,-0.009554073487564024,-0.011658615477633208,-0.013946280881177057,-0.016421306858059342,-0.018996964905599135,-0.021536712894321304,-0.023812231750419206,-0.026320865426068964,-0.028948917630757465,-0.031602567626289754,-0.034242440439075365,-0.036841661095617734,-0.039383354622514466,-0.041839939697072545,-0.044200848391024464,-0.04647486241421948,-0.04863117254591523,-0.050622610237337565,-0.052392684675475934,-0.05402025760155717,-0.055522900473856635,-0.05691804811661823,-0.05832797135830788,-0.05954145369689391,-0.060528065329730214,-0.06133824122604345,-0.062045917212590784,-0.06268109319723678,-0.06333399397853251,-0.06390965947317132,-0.06457408027051526,-0.0651635105194148,-0.06573689164018817,-0.06626959164490825,-0.06673666474804298,-0.06716811091841929,-0.06756518012488046,-0.06792412233628703,-0.06819107132208303,-0.0685613485060173,-0.06904761593165021,-0.06950273029327417,-0.06992235200594804,-0.07039172340549643,-0.07088098419441505,-0.0715317504183959,-0.0721718969535186,-0.07278517379266397,-0.07335595592869923,-0.07392077345696585,-0.07453264825772321,-0.07512265122763695,-0.07568203236341059,-0.07614264587414445,-0.07667445017513945,-0.0770527056576039,-0.07715021560536245,-0.07742626918845041,-0.07769892629526068,-0.07795596405821863,-0.07820675743789439,-0.0784006106697821,-0.07852452712217216,-0.07866283241233069,-0.07892059133185009,-0.07928481884903066,-0.07968156711909963,-0.0802165204776466,-0.0808820234114084,-0.08151691927046766,-0.08223055576343681,-0.08299785257971334,-0.08383701181108666,-0.08473990842074311,-0.08568345044475978,-0.08666141341756033,-0.08744039712868812,-0.088030782501651,-0.08865304012841702,-0.08941581240553084,-0.08982395276076807,-0.0896265300994975,-0.08918898146349903,-0.08791795947650294,-0.08593722958395686,-0.08303464378413022,-0.07926715984934748,-0.0744968947962297,-0.06866619653621664,-0.061801030450904994,-0.05345898591950708,-0.0437018931173207,-0.03198788786543266,-0.018679569398648222,-0.004173923800124076,0.011931389437309408,0.029198080936733956,0.04769071246487874,0.06761120486668208,0.0886165484474393,0.11062878230872283,0.1335010315213491,0.1573127489400478,0.18156032136190559,0.2060287640543541,0.23005289822866684,0.25416948886130003,0.2767514582161971,0.297949796540912,0.31794455136744854,0.33677230278284637,0.353808169006099,0.36881715010439287,0.3817922020572987,0.3928686187375382,0.40195766261079746,0.4090742659306819,0.41310856559624165,0.41436569063821416,0.4129401420174291,0.40793711198108934,0.4013220070400899,0.39231882254108624,0.38124089448837006,0.36857207941596304,0.35362321757487997,0.3373212405986953,0.31981927353558565,0.30122606643358535
p10,-0.04574466092204189,-0.04595134609122131,-0.04586843265106093,-0.045883427136674676,-0.046205893272842254,-0.046374350800513255,-0.04647946269936966,-0.046555172420567004,-0.04661148003267211,-0.04667151060412551,-0.04673338920324099,-0.04679461589820512,-0.04683706575707684,-0.04686258502500805,-0.04677503454860285,-0.046735570560395984,-0.04672669317029403,-0.04674215248810795,-0.04676507362355243,-0.04677920668624511,-0.04679830178570596,-0.04683610903135658,-0.046880128532519466,-0.04691536039841742,-0.046927429738172835,-0.046907586660806994,-0.046876456275239495,-0.04684341369028749,-0.046903478957556144,-0.047279425428965176,-0.047592292614725265,-0.04786770568859117,-0.0479926067221862,-0.04797521424944093,-0.04794883326427296,-0.04788685247016081,-0.04776092140324498,-0.047259934243814014,-0.046782927801617975,-0.04632652622028785,-0.045881354408250766,-0.04544741227406379,-0.045361009023097865,-0.04607635715860143,-0.04582666011027406,-0.04559401713740192,-0.0459138782281083,-0.046338110023066745,-0.046649351047259785,-0.04673679899435626,-0.046733328009838926,-0.04672863313209525,-0.046735214416455034,-0.046828613557504395,-0.04707287459944946,-0.047286915483756756,-0.04747283257839069,-0.04762125025542038,-0.04773966788554133,-0.04784745983807849,-0.04792025048098923,-0.04796303918086628,-0.04799645030294086,-0.048016108211085685,-0.048047012267818046,-0.048119161834302905,-0.048245056270356065,-0.04781299354025299,-0.0467850702583857,-0.045757776513576286,-0.04469423737838199,-0.043597577925146264,-0.043272864372902224,-0.042973226347355106,-0.042659181110304506,-0.04234510376497171,-0.042006619414449144,-0.041654353161699895,-0.041420866449852926,-0.04112088887353442,-0.04068257711360707,-0.04042559618314925,-0.040196296959158384,-0.039983216447980835,-0.039787604751663014,-0.04000315254157103,-0.04030395474811779,-0.04064472256926746,-0.041013138044728975,-0.04118745712932712,-0.04140797471772077,-0.04164094080334875,-0.041867605379790555,-0.04184406330712177,-0.041764009645177874,-0.04167956715746765,-0.041595110930087255,-0.04153064104901617,-0.04158722400203904,-0.04209518606908508,-0.04260871825239093,-0.04297928109202821,-0.043197839812967334,-0.04338445888909189,-0.0435178883559163,-0.04362125324932763,-0.04368392860558593,-0.04371216446132471,-0.04371846085355126,-0.04369844281964701,-0.04363961039736796,-0.04369391374166556,-0.044057912262036064,-0.04444569568047921,-0.04484663926455158,-0.04524511828146462,-0.045632382998082324,-0.04576268263606662,-0.045591134058399166,-0.04567347699257095,-0.045777665128118185,-0.04587505466502685,-0.04595877065347524,-0.04602006314312446,-0.046055182183118444,-0.04606475282208411,-0.04604565010813151,-0.04600537408885391,-0.04595579981132797,-0.04590380232211389,-0.045759963316011204,-0.04553229065315531,-0.045373061116988786,-0.04542486800284218,-0.04547171271289327,-0.04549484523258837,-0.045501140547139295,-0.04566144727296866,-0.04607935158803384,-0.04648783609363459,-0.046873016206271295,-0.04692730418530886,-0.04695156222220945,-0.04698016518890605,-0.04702123795758022,-0.04707665540066423,-0.047153917390843306,-0.04725239880105772,-0.04723949242779831,-0.04710515854019703,-0.04672241286982616,-0.04588696988308667,-0.04598449271564367,-0.04609267805649911,-0.04620090088677237,-0.046061472974700486,-0.045896243756451675,-0.045729100384884265,-0.04555629272701975,-0.045388445650112755,-0.04521493402165304,-0.04503825770936735,-0.04487966658122136,-0.044721660505421604,-0.04456298935041737,-0.04440927798490262,-0.04445829035064593,-0.04485021835002334,-0.04525711838820108,-0.04568914361226106,-0.04630166487690106,-0.04683544916380854,-0.047037764107788385,-0.04663540054657027,-0.04596897081292908,-0.045406693325890174,-0.04511380515526427,-0.044915257470756656,-0.04467049299091607,-0.04436388668820933,-0.04396606353489246,-0.04348577350301115,-0.042908016564401075,-0.04221841769068843,-0.04143510185329027,-0.04057681902341493,-0.03965606917206251,-0.03958915185229934,-0.039770327819594706,-0.03901317339066311,-0.03773112399906732,-0.037093370681563084,-0.037265392499148856,-0.03678600037684104,-0.03624971284027628,-0.035682154792817194,-0.03510895113791595,-0.034154175448640425,-0.033139311632899474,-0.03213879258351437,-0.031288712351227516,-0.030703077527891857,-0.030106773123115792,-0.02950292417993375,-0.028884655741419636,-0.02825196785068703,-0.027542414414523406,-0.026518798067304977,-0.025450815060316063,-0.02435909037297191,-0.023219873984441815,-0.022045040873649738,-0.020818341019274912,-0.019539149399752473,-0.0184199911301907,-0.01738573842364337,-0.016320876097194226,-0.014327969886983837,-0.012224230548146038,-0.010064980831796886,-0.00790631481088242,-0.005991302013797004,-0.00428900687491144,-0.0024911360308592953,-0.0005970643657265358,0.0013763332366184392,0.0033909318925235627,0.005418606718551872,0.007443107831480278,0.00942818534829833,0.011338839386206983,0.013216320062617377,0.015093752495149585,0.016933011801631398,0.01803354695818222,0.01883781565677313,0.019535179789042782,0.020118139261385344,0.02092402336575296,0.0218413163989787,0.02255068657034168,0.022339055281293648,0.02201552017795283,0.02191727153598987,0.022457360718084282,0.02286931653794491,0.02317438903277661,0.023443229631976127,0.024000648056451537,0.024441753982663905,0.024556444730567895,0.022074831278655276,0.02000507980151919,0.0194467258981212,0.018799505315896727,0.018043417834490785,0.017157213234060956,0.01612964129527821,0.015217580291496953,0.0142821371237929,0.01322352614688124,0.012065497106451512,0.010808674748116379,0.009449933817412187,0.007976774059799557,0.006391695220663967,0.004712197045316356,0.002917654278993711,0.0010118166668596725,-0.0013649555494910943,-0.004136852152767573,-0.007017482819016711,-0.009973722515298176,-0.012968696208809943,-0.01598552886688943,-0.018989220457014705,-0.021941645946805626,-0.024788430304025028,-0.027815879124913484,-0.030740013335539978,-0.03302422600054414,-0.0322015071835635,-0.03444256208817147,-0.03662764392270344,-0.03844004153579944,-0.039944164672299914,-0.04131951616842055,-0.042544846130458724,-0.04363140466485883,-0.04459044187821151,-0.044939494795435596,-0.04515159063861156,-0.045296833617960566,-0.04567592643547107,-0.04641333822942967,-0.04702957535672993,-0.047446239366344456,-0.04738198486589078,-0.047401442432662505,-0.04777978843795565,-0.04843662074128924,-0.049238970750654115,-0.05007819621477225,-0.050946796987856494,-0.05182727292428288,-0.05273337387859155,-0.05366697470548773,-0.05435189780051128,-0.05474585272681639,-0.05516171724365447,-0.055438740288849056,-0.05571069961214248,-0.05602824177285607,-0.056780426809295514,-0.05762429128952612,-0.058528750166744074,-0.0595081782811524,-0.05968021959729782,-0.057837293662015274,-0.059181233324259216,-0.060533262340374296,-0.06183275570923169,-0.06302033843019063,-0.0640453855030992,-0.064888536827448,-0.06548034676937753,-0.06574404507666043,-0.06531442504282535,-0.06409311610734211,-0.062251838845819404,-0.06002727706986346,-0.05712716592308846,-0.05345940078566464,-0.048146200154058356,-0.04198297887797639,-0.03487834406644022,-0.026166677359284886,-0.015675545483100052,-0.0032993234487252296,0.011566207682879588,0.02652302803316709,0.043886432166057074,0.06542960548597564,0.08689368782632974,0.11009594445328388,0.134225937419361,0.1609559628765283,0.18959354509592774,0.22142170529340707,0.2516841553973206,0.2830318847049243,0.31567982883541335,0.34850145930085685,0.3810974008864758,0.4131207783774138,0.44389524483609866,0.47227777279375915,0.49863210527902924,0.5229430302785268,0.5449330649423221,0.5641856966701386,0.5804682312248429,0.5935931683385008,0.6034011327436031,0.6085819195376954,0.6099440893722852,0.6075124473221618,0.6013357433804911,0.5918927832371581,0.5796367317447171,0.5642075658547074,0.5459884105022469,0.5253711406224426,0.5026126311503909,0.4780160070211774,0.452007518169877,0.4250068443738939,0.39596704385613535,0.3663382881184469,0.3364788948735489,0.30675413000630436
p11,-0.04290535066873457,-0.04312357065739324,-0.04327610424716215,-0.043356076494942164,-0.04338536245804796,-0.043369587194207415,-0.04332687576156108,-0.04327847821866161,-0.04320751962447324,-0.04309337503837116,-0.04292604452014101,-0.04271365312997834,-0.04245557592848793,-0.04223035075040102,-0.04213764021222215,-0.04203807280751806,-0.041928523684826094,-0.0418289929925478,-0.041730730878948005,-0.04146952739244903,-0.041217424411876626,-0.0409677519323833,-0.04071800995763772,-0.040582226982456365,-0.040859230717908986,-0.04129208889616885,-0.04179665902472378,-0.04227068468073315,-0.04271166587869789,-0.04288598248155047,-0.04260421843187795,-0.04227182571209394,-0.041896971999001366,-0.04221705235641361,-0.04276067880515287,-0.04330491852081203,-0.04383539654673919,-0.044065519240332474,-0.04412358717981163,-0.0441523367786478,-0.04415301791582692,-0.04413750546991038,-0.04408704931903593,-0.044132400273330895,-0.04452724254874364,-0.044619917162389375,-0.044710902805606856,-0.044982016588577964,-0.045237486474879955,-0.04545418746379397,-0.04580226497665239,-0.04634654788593223,-0.04644516138425864,-0.04655752040297431,-0.046683678026153176,-0.04651351470542918,-0.046241578725175994,-0.045978375787736586,-0.045725155935056126,-0.045487544209030124,-0.045260540651504276,-0.04503664530427447,-0.044809608209086665,-0.044613804407636834,-0.04442548394157092,-0.04431970111540201,-0.04435856826623987,-0.04396751008538763,-0.04358264280955172,-0.04321459144682853,-0.04285523100562211,-0.04316172889954331,-0.04360065104339962,-0.04403326666414244,-0.04433974473224421,-0.04408496070705431,-0.04340921065422126,-0.04266165535985039,-0.04194347194353283,-0.04124216027077214,-0.04075597337783214,-0.040413402503735346,-0.04013625207513945,-0.040374107506234505,-0.040627753882326284,-0.04089261580192981,-0.04115369332762235,-0.04141536152219193,-0.04115369261420587,-0.04066900931020216,-0.04041809454027864,-0.04072032914993787,-0.04055134424986539,-0.04042414382106259,-0.04053758522396806,-0.04067265132686154,-0.04058180595106345,-0.040464727844105194,-0.04033391715060389,-0.04017257452379196,-0.04023679105493025,-0.040299109684140716,-0.04036140545516069,-0.040428053411779075,-0.04047530359783653,-0.04050815605722562,-0.04053536083389096,-0.04101805014166228,-0.04167226361928874,-0.041768956961081766,-0.04160907070272037,-0.04144414681144314,-0.04126918518722862,-0.041099810730075334,-0.040941648340002974,-0.04092173840309255,-0.04127881176304814,-0.04166088785919227,-0.04207421668917304,-0.04248723730658431,-0.04273726770955709,-0.04298609815651583,-0.04326060373477254,-0.043283911610823816,-0.043310485388501456,-0.04334707776647562,-0.04339368870892056,-0.043504403144823955,-0.04360582715128335,-0.04357969560285575,-0.043804472909717077,-0.04419462356924532,-0.044058079364132995,-0.043855586869620364,-0.04352329133400441,-0.04317854365245512,-0.042956535847804525,-0.042758329560720815,-0.04268470370384266,-0.04272010045418112,-0.04275804394206058,-0.04281728404449798,-0.04289782063828185,-0.04297402859997412,-0.0431184536196024,-0.04325241199022094,-0.043298486936680744,-0.04338421849935664,-0.043441104462906124,-0.042964242178870175,-0.0425817100636652,-0.042519965503895224,-0.042499957274639705,-0.04246680171601987,-0.04242612389529289,-0.042375423879814286,-0.0422213158297039,-0.04196651310012616,-0.0416885374719663,-0.04139426405907071,-0.0414237700706699,-0.041455279905556724,-0.041478654632954304,-0.041488894390272195,-0.04137501113883814,-0.041243467901929357,-0.04131786761689641,-0.04152437006647988,-0.04172774455530123,-0.041933616098642046,-0.04214282026870733,-0.04188715303355347,-0.0414276012658063,-0.04096743482533739,-0.04051727865126639,-0.04044226233937296,-0.04044632579277939,-0.040503473415632714,-0.04022435060341105,-0.03991680692216924,-0.03962549340005493,-0.03933285691278586,-0.03875727829621878,-0.03819729787523013,-0.03775110945182808,-0.03753685962211507,-0.03730879439098492,-0.03706316394158988,-0.03691102806021275,-0.03692382858638282,-0.03700100391264927,-0.03679457466380601,-0.03630868606683432,-0.03582903987263772,-0.035695922569668664,-0.0358008257814333,-0.035891975631305015,-0.035956872179303906,-0.03573920058438816,-0.035454697239205274,-0.03495837424379496,-0.03442485890880995,-0.0339400166466156,-0.03342826865016285,-0.03319387825309447,-0.03342919736038859,-0.033670117262429355,-0.03390163798416311,-0.03410063455064431,-0.0342371069870364,-0.03431293031861269,-0.034331229570757155,-0.034259839913677426,-0.03376076536515523,-0.033248572752963744,-0.03272701224081928,-0.03220233399266388,-0.03166266317266488,-0.031102374945214437,-0.030524594474929036,-0.029858418095105012,-0.02910161369088244,-0.028426281371822022,-0.02780376902649505,-0.027096888278634497,-0.026302513988225775,-0.025406896015145695,-0.024377534219163957,-0.02322067845994468,-0.021958828597047897,-0.02060385948993105,-0.018922308493097797,-0.0170475837387722,-0.015198690934532088,-0.013505655613373607,-0.011677997477777789,-0.009783502174840152,-0.007849044853445902,-0.005769820769102893,-0.0035285071068272317,-0.001317605017721955,0.0006035832376749575,0.0031180385028458874,0.0047902503875605655,0.005753389284934143,0.007386745827896321,0.009029568210969983,0.010534857120346117,0.011878862707841711,0.013064085125541861,0.014144387396471152,0.015313731554066899,0.0163849390511321,0.017168715991174893,0.016565356700004516,0.016777894358085386,0.017244778861390374,0.017572296766811116,0.017707948069556098,0.017659856276602937,0.018370754647386467,0.017624876342679882,0.016710282585153894,0.015641973233176423,0.014434948144894873,0.013061538130890499,0.01138547884711931,0.00971356190267322,0.008055546923734513,0.00630654016161386,0.004228054046970794,0.0021244210143975327,-6.962366245183465e-05,-0.002418657541708294,-0.0049306021890269105,-0.0076651511157631615,-0.01044218392019831,-0.013224200462124726,-0.015969325601403545,-0.0186413091979657,-0.021203901111812973,-0.023633976203019005,-0.025930909331730374,-0.028090325358167592,-0.030197898023480402,-0.03227241516986673,-0.03422504448771381,-0.03603953581988638,-0.03772901400912267,-0.03929160389803507,-0.040555487630822555,-0.0414534343309996,-0.04229297869017663,-0.043135645423875546,-0.04382951968855972,-0.04437647642774437,-0.04521343826098963,-0.046187261435611617,-0.04664256526306561,-0.046798402882717256,-0.0471304183903769,-0.04729528258801952,-0.0474288338452638,-0.047529197248399616,-0.047610122884070585,-0.04768598583927386,-0.04771011478123138,-0.047590943024757276,-0.04772164977736566,-0.04820566716924431,-0.04880693667645526,-0.049397580494500964,-0.050081930858652396,-0.05087811271621814,-0.05176794444336304,-0.052670194282016795,-0.05410149880436661,-0.05575944010921681,-0.05752122946143704,-0.05811891741377384,-0.059796711427114894,-0.061445057437414616,-0.06301583041999972,-0.06443778035057048,-0.0655940686070408,-0.0661326465839335,-0.06624868377292317,-0.06585467993539251,-0.06489311575263404,-0.06347766451529274,-0.06159390625539751,-0.05911605427707714,-0.05562072020214773,-0.05158818038469356,-0.046161422579723395,-0.038034373926228646,-0.028038925558625062,-0.0163036123413458,-0.0025176541568406154,0.013216302872832722,0.031166667732431638,0.0513552973679338,0.0736091976693285,0.09774878424395135,0.12342508776133526,0.15134766533027394,0.1813323697333164,0.21306976336650857,0.24617486415600093,0.2804721337895656,0.31494944749422754,0.3498394440107705,0.3846683456713503,0.4185259013600136,0.45188986545541937,0.4852887178254491,0.515713011697216,0.5428338326242668,0.5671843080755847,0.5898993586443375,0.6091854246624921,0.6251015842599374,0.6376707272628606,0.6471913529666132,0.6535031492009655,0.656129857464177,0.6544265635641324,0.64827308089553,0.638442982040367,0.6252490510961883,0.6072609607502955,0.5882876269223944,0.565928005505728,0.5411777364437422,0.5147820830384622,0.4868372108575153,0.45759232119735743,0.42737366394353216,0.3965518639817727,0.36549629619800283,0.3345525854783372
p12,-0.03955952109520241,-0.03984548133009974,-0.0401234759447122,-0.04019802913223461,-0.040383941324401165,-0.040683165262278706,-0.04093516039847281,-0.04115549932618448,-0.04141148294565701,-0.04142314872597649,-0.04146441571366281,-0.04147599232871747,-0.041356188568170735,-0.04145489879835942,-0.041644270054813914,-0.041956927191973005,-0.04225918282719611,-0.04264585153636571,-0.04301625521715126,-0.04327270220466374,-0.04346274160139181,-0.0437260416052216,-0.043925865576072996,-0.044011897543859674,-0.04386372307386511,-0.04385391350270092,-0.04396326986452834,-0.04412689852750491,-0.04426383501945917,-0.044186544674198525,-0.04394162154120044,-0.043694149115577785,-0.04347119710004645,-0.04320248076394862,-0.04299968973483582,-0.04264603451097716,-0.04221429608890072,-0.04169288099336581,-0.041112625084926954,-0.04049667552830476,-0.03970641871760233,-0.03876552624484722,-0.03774600639356028,-0.03669172801343436,-0.03553457543111217,-0.034268949974800435,-0.03283301051467369,-0.031649018342421745,-0.03016158027080636,-0.0285070403533744,-0.026766656143256566,-0.02512365848662962,-0.023597879060172883,-0.022045830816303597,-0.02045688868520654,-0.018578989872962186,-0.01663521703893174,-0.014636126213351051,-0.012797558968441973,-0.011115142429331442,-0.00957859873555502,-0.007936149273540315,-0.006354048236713249,-0.004950824212506735,-0.0037520050741661794,-0.002775158219336541,-0.001834101517297664,-0.0008444061881753477,1.9553616613880297e-05,0.0005414020069213652,0.0009012940881336301,0.0010927976177862943,0.0013236222901963262,0.0013717452700199,0.0011802583279514884,0.001049782181178314,0.001007739500175559,0.0008268705162872296,0.0005845117367805732,0.00044947909805371003,0.0003996326554754074,0.0004475044870567279,0.00033472732203990456,0.0006972363585668936,0.0009912404158784536,0.0014250037936566309,0.0017743376036608856,0.0024757359979595784,0.003373999533217181,0.0042781553779897615,0.005503940536727318,0.006731481079209718,0.008122754187262098,0.009643030352563232,0.011284365548044805,0.013021545049634785,0.014742233278012384,0.01634790680478785,0.017963717273791313,0.019450196551932034,0.02097454116231661,0.022328462833166106,0.023668120176629087,0.024945378156189774,0.02598719185576443,0.02677274003046352,0.027684172572503787,0.02829609560895952,0.02852686143134897,0.028529163782421076,0.02810041881765694,0.02748655543350907,0.026656039005490746,0.025495685276445884,0.02403204605625471,0.022168762635114185,0.019900172762602003,0.017645227413655484,0.01530012221351016,0.013082698749323482,0.010458796997027588,0.007573688945321023,0.00480145756402979,0.0017008974116625199,-0.0018106643641776097,-0.005449869614342579,-0.009142392607836024,-0.012672943812590924,-0.01630830840241323,-0.019782969049691783,-0.023218025035153005,-0.026205761731761985,-0.02904614517717958,-0.03236394830812113,-0.035183326891116265,-0.03755216098501747,-0.039628294853390436,-0.041407764586964116,-0.043008848540138686,-0.04445259018754401,-0.045603690840848574,-0.04668761731458321,-0.04761534474917292,-0.048167642881664446,-0.04857809203540045,-0.04902924690672586,-0.049305726613742634,-0.04943702803170913,-0.04986924957340205,-0.05009815307690389,-0.05019321953342072,-0.05045827680120783,-0.05102305110704683,-0.05148627883356846,-0.0518540273437908,-0.05209833980611695,-0.052357180037909276,-0.05299103149508995,-0.053645405269792265,-0.05435350983535782,-0.05493290940530969,-0.055154653755908514,-0.055693188624959644,-0.05615228064996824,-0.056899345299954815,-0.05768704333834542,-0.05841038730744834,-0.058907957927757555,-0.05932395514556618,-0.05947223960423707,-0.05972119086315454,-0.060004377970260765,-0.06055796778729552,-0.06124292286807265,-0.06210691741693525,-0.06272977331492519,-0.06327850567117624,-0.06376411281808952,-0.06429492276720422,-0.0646324243027677,-0.06516671113552049,-0.06538466933489209,-0.06551315702340457,-0.06571531789471483,-0.06572325020849425,-0.06552159909097438,-0.06527911417638302,-0.0646904570320305,-0.06425764785862959,-0.06364916854193824,-0.06251845249096566,-0.0612152210163356,-0.060006837437701604,-0.05853655329433098,-0.05637817657647723,-0.053516035976433125,-0.04987650825496346,-0.04575466804332221,-0.040772733138200595,-0.03476104036511371,-0.02786328689340438,-0.01992066800589823,-0.011206385070536683,-0.001009340412720044,0.01056964077711061,0.024221184473725368,0.03942543451150566,0.05498483432559144,0.07203726710303765,0.09077557086612012,0.11070485416010323,0.13152016759996374,0.15323582243972655,0.17527841248050496,0.19809952248939694,0.22041761891612044,0.24181859342999448,0.26257975071173145,0.2821900507257505,0.30011425657989377,0.31660745556013503,0.3306391326864436,0.34207765194207096,0.35068051348111623,0.35572305891394185,0.3578094451325115,0.35624291633135624,0.35126048572445656,0.3426764193173235,0.33035965805504325,0.31491477977104376,0.29746136242147714,0.2767945247585242,0.2538606670933369,0.22832616007816342,0.20052640702808533,0.17077967078369732,0.14086926237787684,0.11050956140324791,0.08059624009452243,0.05089738267860305,0.022562121838537265,-0.004293194000755561,-0.030397053889605494,-0.05504487840560551,-0.07684531286627565,-0.09661308781961794,-0.11504527684267098,-0.13165249228722592,-0.145581690028189,-0.1564173020992785,-0.1656995383381853,-0.17182232353118473,-0.17664765778497526,-0.18041522924420583,-0.1825080147174225,-0.18298213593950008,-0.18143060587247933,-0.1786543997417277,-0.17453318605905813,-0.16982782065979338,-0.16478150006950135,-0.1593872647415186,-0.15384731657734785,-0.1482955818278489,-0.1428207935173333,-0.13723132925240028,-0.13129412298669008,-0.1259756485631343,-0.12076733379784732,-0.11545525323003125,-0.11034738548079609,-0.1053760579349002,-0.10075510273446757,-0.09610220303535263,-0.09202292288280028,-0.08806532187302585,-0.08426052187008631,-0.08094172755839402,-0.07788046975302657,-0.07499082997179798,-0.07277487714171954,-0.07061465331372915,-0.06859772837556843,-0.06656408483434696,-0.06494000272573497,-0.06324142112069242,-0.061673703673598534,-0.060785016331924235,-0.0600731892455274,-0.05939786023654147,-0.058657033139858795,-0.05790560762350418,-0.057221379759440305,-0.05687455648025107,-0.05633581628954465,-0.05555282643004643,-0.05473111134688623,-0.05411321273968503,-0.05307275571614183,-0.05244249211575316,-0.05197095073052309,-0.05132313731078551,-0.05038990849993596,-0.04963762986572607,-0.04904971915305572,-0.048371799591934654,-0.04777203956793123,-0.046894948064904886,-0.046082862370297024,-0.045290782557538635,-0.04448245870002327,-0.04367914087110645,-0.04292707914410516,-0.042345121956904916,-0.04155797428892071,-0.04078593130717355,-0.04000139472021273,-0.03928686460115389,-0.03888100078407882,-0.038129599689872784,-0.03724847838881221,-0.03651506026477074,-0.03580806358046812,-0.03513857380186045,-0.034271215756102355,-0.03348388568438739,-0.03261027231461211,-0.031766629554338656,-0.030986707449666112,-0.030141262977266197,-0.02945766571316779,-0.028653015532388006,-0.027836347599651673,-0.027066658383771633,-0.026322811188761126,-0.025623934976021806,-0.024710538293906462,-0.02379549911486227,-0.023318080615775377,-0.022768140894433055,-0.02181770012024026,-0.02081152143307729,-0.019840926641517844,-0.018829090202488345,-0.01772101218777331,-0.016425665140260972,-0.015421131718138085,-0.01459321850672189,-0.013984764291153879,-0.012665551161147214,-0.011743498699484515,-0.011045134102249637,-0.010403436289259499,-0.009418864000549308,-0.008645763453880087,-0.007734402815878549,-0.007104272232881941,-0.0062836209929486315,-0.004844034316058411,-0.003825518614440769,-0.002870256453198534,-0.001756935979356156,-0.00025712996105799413,0.0008395244321125101,0.0018764179501160004,0.003112254588473513,0.004326267257921753,0.0054521635217429,0.006434837543373234,0.007710288454754146,0.009023966437664939,0.010554152809902535,0.011906169249721408,0.01320022050689741,0.014734846054227905,0.016287580109326186,0.0178307847158233,0.019395516403609425,0.02099228845925671,0.022563663172434828
p13,-0.04678263178500473,-0.04685173108160605,-0.04686263018186117,-0.04685229758788616,-0.047021546199358506,-0.04734277053808848,-0.04773394498176022,-0.04794701959797779,-0.04805213347262954,-0.04813099868849062,-0.04818611522520953,-0.04826248306238305,-0.04835010217955637,-0.04844772255622321,-0.048580344171826,-0.04846566809795214,-0.048861841037353325,-0.04901196624590737,-0.04915334261065664,-0.049319720110789084,-0.04942859872544221,-0.049464978433703184,-0.049730932716982694,-0.04968505752294685,-0.04997821626742325,-0.05025261608738386,-0.05039817778970106,-0.05047434590064725,-0.050443563128405935,-0.05035310272462534,-0.05027012359665631,-0.05018087573805025,-0.050027859142459385,-0.049898573803636756,-0.04980051971543608,-0.049359084077799924,-0.0490946062347235,-0.04938069191926122,-0.049450615749447834,-0.049328717825682177,-0.04916555111777139,-0.048864865620272056,-0.048551661327840834,-0.04835718823523446,-0.04825973221948246,-0.04834776114834777,-0.04848324282741163,-0.04877476182821912,-0.04935552294629905,-0.049669552042194705,-0.049857198459764,-0.05039619495215022,-0.050720523541011975,-0.05074841341204324,-0.050671259424053226,-0.050467811534196896,-0.05031681969975978,-0.05026578387815868,-0.050178004168423926,-0.050100558037935776,-0.05025451463675267,-0.050453699873083444,-0.05043347335651128,-0.05066989285016228,-0.05082025903401746,-0.05102901440240917,-0.051086607687755324,-0.05108293207693379,-0.05098173756718209,-0.05080802415583623,-0.0506092918403307,-0.05080613243529597,-0.05109233092095093,-0.05088383350590395,-0.05067157845161011,-0.05044806578352016,-0.050441440054223165,-0.05044279578117269,-0.05048567377761227,-0.050175358615646745,-0.050122537394831614,-0.05010269265098103,-0.049946597637139024,-0.049754252329648724,-0.0495144067048163,-0.04922331073891134,-0.04887221440816701,-0.04847279954846462,-0.04826162975150755,-0.04802541467813663,-0.04776165429048523,-0.047777225201284274,-0.04754336054002174,-0.04673510086550437,-0.04631784766176363,-0.046214703712765044,-0.045909822514703366,-0.045036561775684276,-0.044755298298367927,-0.043975227683959964,-0.043203970463015946,-0.04256443997527646,-0.04227813916161461,-0.041973100875155114,-0.041604755264558056,-0.04078122533940694,-0.040475250479700596,-0.04016679191132458,-0.039844599691153976,-0.03951742387598595,-0.03918651452253927,-0.03886812168745385,-0.03855349542729033,-0.038208885798529615,-0.03794220271035408,-0.03780498527626038,-0.03767026197503611,-0.03765568213001379,-0.03733908822126139,-0.03716116265249921,-0.036980735627047075,-0.036759057110035895,-0.036401633000327234,-0.03591260739098345,-0.03555543020148315,-0.03525982742280931,-0.03482814091876416,-0.034245263140209696,-0.03334487037037937,-0.03227743938161309,-0.031668051656527973,-0.030784756009474445,-0.03006408581849467,-0.02946508033911043,-0.02833698157883871,-0.0272212818966442,-0.026324090659081256,-0.02542812040717977,-0.024548371175983248,-0.023677343000730215,-0.022813785916854096,-0.022000199959983077,-0.021078942134094305,-0.020057357297495734,-0.019045790801260714,-0.018072992699087922,-0.017122713044582065,-0.016199951891253457,-0.015320959292517611,-0.014498235301694815,-0.013697762835524131,-0.012995343356591011,-0.012337675508470806,-0.011707526480584445,-0.01069668579642055,-0.009271004411143808,-0.007849096915485632,-0.006459713307803892,-0.0053588833962105765,-0.0042888936101762535,-0.003314110211047042,-0.002430616355577721,-0.001554561814345854,-0.0005797803072889241,0.0005087281664085119,0.0016469619619532746,0.002780962797359834,0.004077544058015057,0.005596254031836236,0.007114966439101854,0.008547431305478841,0.009954898656641138,0.011353618518269283,0.01268859091605002,0.01389549112768555,0.015053543422844828,0.016211242237780463,0.01771274022811473,0.018777128516922145,0.01984100460384027,0.02022975913901906,0.019813335431396316,0.01967596086379866,0.019763460036947282,0.019649712029094445,0.019399716865969176,0.019211219965056266,0.019102240729863273,0.0187245168357099,0.018235238017831654,0.017464240495819232,0.016447626967703934,0.01542992420581961,0.014031276892843782,0.012990357237239713,0.01180059717698286,0.010379965182075089,0.009438347080615824,0.008491312919711051,0.00696655133519123,0.0052970191655849624,0.0035674736862770376,0.0017767807952908824,-8.066591282137323e-05,-0.0018398825608573694,-0.003492610925769724,-0.005242868722024008,-0.007000416052711386,-0.008869274888074877,-0.010753119409041587,-0.012759443193483938,-0.014602015500028516,-0.016629183043223167,-0.01861637729949083,-0.020783978416094043,-0.022918322773407412,-0.025134303888203074,-0.027361540506490055,-0.02957753256700317,-0.03202784055183019,-0.03428954713912856,-0.036167985253075706,-0.03807139069038041,-0.03989476354096742,-0.04228691007689517,-0.04426081249111555,-0.04569217327412643,-0.04731552026172239,-0.048768787175615606,-0.05012634183679125,-0.05160461973848943,-0.053254139947534654,-0.054269152079077884,-0.05520790993373511,-0.05611880105617832,-0.05694823888086785,-0.057653908731036776,-0.05821081062054913,-0.058815385900369145,-0.059237868602020134,-0.059609097196440086,-0.05997532170795933,-0.06033152597163806,-0.06072926600120613,-0.06090272098876993,-0.06125642941246191,-0.06170763387525957,-0.062167584401635466,-0.06271536599456329,-0.0632597539833851,-0.06365884182008194,-0.06410484763320899,-0.06465963519907578,-0.06526687691278965,-0.0656890161751024,-0.06593364908136196,-0.06624071604985991,-0.06656562856328069,-0.0670491270254816,-0.0677231374947384,-0.06842463035042387,-0.06885924955583451,-0.06904417782638557,-0.06940614772860673,-0.0699057574389149,-0.07039044545371206,-0.07069295340968884,-0.07095338019415721,-0.07125261191286321,-0.07156439855250195,-0.07185999009932556,-0.0720768865391423,-0.07207295840061316,-0.07200969014297341,-0.0718212202231034,-0.0714172010694972,-0.0702321916052074,-0.06890191707996637,-0.06697425983966615,-0.06480278235510635,-0.06177267211947335,-0.05885249949966457,-0.054805846142097464,-0.05033878820778788,-0.044081704145970936,-0.03644395087869897,-0.027416203321119832,-0.01711648839926167,-0.004774475340733308,0.008989505079286121,0.02496836630004221,0.04163445927812753,0.06127498859351246,0.08279388758164707,0.10540193699992091,0.12954871582835115,0.15412595791873235,0.17895514833030707,0.20657806742129267,0.2342263842824428,0.2613395008774365,0.29017145101632547,0.32177212097634544,0.3508261320393609,0.3773464756232059,0.40643712023741285,0.4327492013799953,0.4568299659864099,0.4797118899696586,0.502548384687761,0.5221664151231574,0.5381700166018855,0.5516148873107876,0.5622385272973984,0.5715590221304699,0.5765065530073293,0.5772210685056179,0.57465806331854,0.5699460284052618,0.5621645534322526,0.5499594589261323,0.5359245968448396,0.519465912446278,0.5001320867836664,0.4786598354699625,0.45439794365386194,0.42784743588640584,0.40098280743236964,0.3731543481895671,0.3451331470452237,0.3164794781269908,0.2874620768646203,0.25771899521647196,0.22691096585489096,0.19664296383921512,0.1670862393209132,0.13842329245114193,0.1107853733807448,0.08384475584982629,0.05844066825493634,0.03462488577052519,0.01356522809873753,-0.006771299723181792,-0.025476548847308697,-0.04251051912502434,-0.057485773987120646,-0.07052519995890433,-0.0828858701063774,-0.09358103168385404,-0.10282502509681651,-0.1107227666618863,-0.1172992563964251,-0.12245736752037387,-0.12634749875037837,-0.12925016368191006,-0.13128786231101938,-0.1330056524596275,-0.1339887363411345,-0.13430679541406637,-0.1339773604515058,-0.1330725844897937,-0.13190030687025717,-0.130584277610078,-0.1287244684945923,-0.12615542881579725,-0.12532447170299807,-0.12331109105954312,-0.12230671390820674,-0.12094281675892166,-0.11861048375961626,-0.11721756352696368,-0.11618916362085044,-0.11504952079356734,-0.1141947053049085,-0.11274745960350048,-0.1111976019692626,-0.11027906547297198,-0.10916019579895254,-0.10823557780919608,-0.10704786125986517,-0.10664350847583103
